R 50.00000
Frequency (MHz),RE[Y11],IM[Y11]
100.0000000000000,1.7687770160e-4,0.0173750849157
105.0000000000000,1.8156468341e-4,0.0183124834998
110.0000000000000,1.8638703620e-4,0.0192605558108
115.0000000000000,1.9135295507e-4,0.0202199720054
120.0000000000000,1.9647094322e-4,0.0211914278048
125.0000000000000,2.0174987839e-4,0.0221756465577
130.0000000000000,2.0719908001e-4,0.0231733814324
135.0000000000000,2.1282837680e-4,0.0241854177551
140.0000000000000,2.1864817537e-4,0.0252125755136
145.0000000000000,2.2466953007e-4,0.0262557120446
150.0000000000000,2.3090421510e-4,0.0273157249268
155.0000000000000,2.3736479941e-4,0.0283935551015
160.0000000000000,2.4406472556e-4,0.0294901902459
165.0000000000000,2.5101839343e-4,0.0306066684266
170.0000000000000,2.5824125000e-4,0.0317440820629
175.0000000000000,2.6574988631e-4,0.0329035822340
180.0000000000000,2.7356214312e-4,0.0340863833680
185.0000000000000,2.8169722661e-4,0.0352937683536
190.0000000000000,2.9017583581e-4,0.0365270941226
195.0000000000000,2.9902030357e-4,0.0377877977556
200.0000000000000,3.0825475311e-4,0.0390774031716
205.0000000000000,3.1790527239e-4,0.0403975284673
210.0000000000000,3.2800010902e-4,0.0417498939847
215.0000000000000,3.3856988844e-4,0.0431363311925
220.0000000000000,3.4964785896e-4,0.0445587924802
225.0000000000000,3.6127016737e-4,0.0460193619791
230.0000000000000,3.7347616972e-4,0.0475202675367
235.0000000000000,3.8630878230e-4,0.0490638939944
240.0000000000000,3.9981487927e-4,0.0506527979361
245.0000000000000,4.1404574303e-4,0.0522897241050
250.0000000000000,4.2905757712e-4,0.0539776237114
255.0000000000000,4.4491208993e-4,0.0557196748945
260.0000000000000,4.6167716161e-4,0.0575193056393
265.0000000000000,4.7942760755e-4,0.0593802195012
270.0000000000000,4.9824605455e-4,0.0613064245487
275.0000000000000,5.1822394938e-4,0.0633022660063
280.0000000000000,5.3946272251e-4,0.0653724631615
285.0000000000000,5.6207513525e-4,0.0675221512012
290.0000000000000,5.8618684384e-4,0.0697569287667
295.0000000000000,6.1193822123e-4,0.0720829121586
300.0000000000000,6.3948648651e-4,0.0745067973057
305.0000000000000,6.6900820240e-4,0.0770359308281
310.0000000000000,7.0070221575e-4,0.0796783917904
315.0000000000000,7.3479313296e-4,0.0824430860729
320.0000000000000,7.7153544463e-4,0.0853398556915
325.0000000000000,8.1121844200e-4,0.0883796059073
330.0000000000000,8.5417210379e-4,0.0915744535971
335.0000000000000,9.0077417890e-4,0.0949379011544
340.0000000000000,9.5145875106e-4,0.0984850411987
345.0000000000000,0.0010067266510,0.1022327986547
350.0000000000000,0.0010671581866,0.1062002184123
355.0000000000000,0.0011334287997,0.1104088089038
360.0000000000000,0.0012063284463,0.1148829547060
365.0000000000000,0.0012867857476,0.1196504149043
370.0000000000000,0.0013758983030,0.1247429287645
375.0000000000000,0.0014749710331,0.1301969566699
380.0000000000000,0.0015855650766,0.1360545929269
385.0000000000000,0.0017095607027,0.1423646988213
390.0000000000000,0.0018492390241,0.1491843205144
395.0000000000000,0.0020073892223,0.1565804789696
400.0000000000000,0.0021874508164,0.1646324509807
405.0000000000000,0.0023937047063,0.1734347060201
410.0000000000000,0.0026315330926,0.1831007299201
415.0000000000000,0.0029077781934,0.1937680643198
420.0000000000000,0.0032312451575,0.2056050380055
425.0000000000000,0.0036134194237,0.2188198919741
430.0000000000000,0.0040695098714,0.2336733536026
435.0000000000000,0.0046199985023,0.2504962827356
440.0000000000000,0.0052929987011,0.2697149476330
445.0000000000000,0.0061279429105,0.2918880769755
450.0000000000000,0.0071815308405,0.3177626245677
455.0000000000000,0.0085376728704,0.3483602794196
460.0000000000000,0.0103248182285,0.3851164845949
465.0000000000000,0.0127476724048,0.4301132991795
470.0000000000000,0.0161487746074,0.4864892922784
475.0000000000000,0.0211369783099,0.5592060258247
480.0000000000000,0.0288808788485,0.6565936256237
485.0000000000000,0.0418622222865,0.7937847026495
490.0000000000000,0.0661433139493,1.0014016309141
495.0000000000000,0.1199577626441,1.3519789950130
500.0000000000000,0.2809962186124,2.0668620545872
505.0000000000000,1.2445972431904,4.2278184304093
510.0000000000000,11.530904259797,-6.953969171935
515.0000000000000,0.7023462645545,-3.260534257703
520.0000000000000,0.2070902117323,-1.805531575384
525.0000000000000,0.0969499346988,-1.243804047707
530.0000000000000,0.0558889983415,-0.948555110716
535.0000000000000,0.0362676639726,-0.766853783841
540.0000000000000,0.0254043093029,-0.643823160817
545.0000000000000,0.0187719166628,-0.555003325400
550.0000000000000,0.0144299163830,-0.487860417479
555.0000000000000,0.0114345386770,-0.435312816352
560.0000000000000,0.0092821829755,-0.393058923350
565.0000000000000,0.0076842876468,-0.358335525279
570.0000000000000,0.0064658970825,-0.329286784428
575.0000000000000,0.0055159465428,-0.304620166004
580.0000000000000,0.0047611892372,-0.283407847649
585.0000000000000,0.0041517396057,-0.264966588567
590.0000000000000,0.0036526745953,-0.248782136350
595.0000000000000,0.0032389567646,-0.234460032416
600.0000000000000,0.0028922585788,-0.221692654175
605.0000000000000,0.0025989158564,-0.210236568804
610.0000000000000,0.0023485738818,-0.199896621812
615.0000000000000,0.0021332707107,-0.190514534375
620.0000000000000,0.0019468034958,-0.181960586258
625.0000000000000,0.0017842822243,-0.174127452352
630.0000000000000,0.0016418101121,-0.166925569212
635.0000000000000,0.0015162511873,-0.160279606120
640.0000000000000,0.0014050589088,-0.154125745283
645.0000000000000,0.0013061481723,-0.148409562680
650.0000000000000,0.0012177985906,-0.143084360333
655.0000000000000,0.0011385806161,-0.138109841629
660.0000000000000,0.0010672985411,-0.133451050142
665.0000000000000,0.0010029461115,-0.129077512737
670.0000000000000,9.4467166325e-4,-0.124962542521
675.0000000000000,8.9175051592e-4,-0.121082667900
680.0000000000000,8.4356294890e-4,-0.117417161900
685.0000000000000,7.9957650587e-4,-0.113947651799
690.0000000000000,7.5933168273e-4,-0.110657793531
695.0000000000000,7.2243027979e-4,-0.107532998641
700.0000000000000,6.8852586605e-4,-0.104560204177
705.0000000000000,6.5731592945e-4,-0.101727677826
710.0000000000000,6.2853538087e-4,-0.099024852167
715.0000000000000,6.0195115156e-4,-0.096442183067
720.0000000000000,5.7735767892e-4,-0.093971028238
725.0000000000000,5.5457311747e-4,-0.091603542667
730.0000000000000,5.3343614500e-4,-0.089332588248
735.0000000000000,5.1380325999e-4,-0.087151655417
740.0000000000000,4.9554648287e-4,-0.085054794976
745.0000000000000,4.7855140180e-4,-0.083036558570
750.0000000000000,4.6271549269e-4,-0.081091946593
755.0000000000000,4.4794668227e-4,-0.079216362440
760.0000000000000,4.3416210820e-4,-0.077405572221
765.0000000000000,4.2128704807e-4,-0.075655669204
770.0000000000000,4.0925399124e-4,-0.073963042341
775.0000000000000,3.9800183233e-4,-0.072324348337
780.0000000000000,3.8747516833e-4,-0.070736486812
785.0000000000000,3.7762368463e-4,-0.069196578159
790.0000000000000,3.6840161717e-4,-0.067701943761
795.0000000000000,3.5976728037e-4,-0.066250088278
800.0000000000000,3.5168265164e-4,-0.064838683762
805.0000000000000,3.4411300510e-4,-0.063465555363
810.0000000000000,3.3702658776e-4,-0.062128668470
815.0000000000000,3.3039433293e-4,-0.060826117099
820.0000000000000,3.2418960585e-4,-0.059556113394
825.0000000000000,3.1838797768e-4,-0.058316978120
830.0000000000000,3.1296702428e-4,-0.057107132040
835.0000000000000,3.0790614670e-4,-0.055925088077
840.0000000000000,3.0318641092e-4,-0.054769444177
845.0000000000000,2.9879040445e-4,-0.053638876802
850.0000000000000,2.9470210790e-4,-0.052532134993
855.0000000000000,2.9090677982e-4,-0.051448034929
860.0000000000000,2.8739085327e-4,-0.050385454950
865.0000000000000,2.8414184286e-4,-0.049343330990
870.0000000000000,2.8114826117e-4,-0.048320652374
875.0000000000000,2.7839954343e-4,-0.047316457954
880.0000000000000,2.7588597973e-4,-0.046329832545
885.0000000000000,2.7359865388e-4,-0.045359903638
890.0000000000000,2.7152938834e-4,-0.044405838351
895.0000000000000,2.6967069452e-4,-0.043466840614
900.0000000000000,2.6801572803e-4,-0.042542148554
905.0000000000000,2.6655824838e-4,-0.041631032063
910.0000000000000,2.6529258264e-4,-0.040732790532
915.0000000000000,2.6421359287e-4,-0.039846750745
920.0000000000000,2.6331664683e-4,-0.038972264905
925.0000000000000,2.6259759181e-4,-0.038108708784
930.0000000000000,2.6205273124e-4,-0.037255479995
935.0000000000000,2.6167880400e-4,-0.036411996361
940.0000000000000,2.6147296601e-4,-0.035577694381
945.0000000000000,2.6143277420e-4,-0.034752027781
950.0000000000000,2.6155617255e-4,-0.033934466142
955.0000000000000,2.6184148002e-4,-0.033124493599
960.0000000000000,2.6228738157e-4,-0.032321607598
965.0000000000000,2.6289291449e-4,-0.031525317720
970.0000000000000,2.6365747233e-4,-0.030735144542
975.0000000000000,2.6458078935e-4,-0.029950618552
980.0000000000000,2.6566294242e-4,-0.029171279102
985.0000000000000,2.6690434812e-4,-0.028396673393
990.0000000000000,2.6830576243e-4,-0.027626355491
995.0000000000000,2.6986828200e-4,-0.026859885370
1000.000000000000,2.7159334685e-4,-0.026096827972
1005.000000000000,2.7348274476e-4,-0.025336752287
1010.000000000000,2.7553861705e-4,-0.024579230445
1015.000000000000,2.7776346615e-4,-0.023823836813
1020.000000000000,2.8016016465e-4,-0.023070147102
1025.000000000000,2.8273196623e-4,-0.022317737469
1030.000000000000,2.8548251823e-4,-0.021566183617
1035.000000000000,2.8841587629e-4,-0.020815059892
1040.000000000000,2.9153652077e-4,-0.020063938357
1045.000000000000,2.9484937551e-4,-0.019312387862
1050.000000000000,2.9835982867e-4,-0.018559973085
1055.000000000000,3.0207375613e-4,-0.017806253550
1060.000000000000,3.0599754744e-4,-0.017050782618
1065.000000000000,3.1013813459e-4,-0.016293106434
1070.000000000000,3.1450302386e-4,-0.015532762845
1075.000000000000,3.1910033103e-4,-0.014769280260
1080.000000000000,3.2393882017e-4,-0.014002176464
1085.000000000000,3.2902794642e-4,-0.013230957370
1090.000000000000,3.3437790316e-4,-0.012455115704
1095.000000000000,3.3999967393e-4,-0.011674129614
1100.000000000000,3.4590508962e-4,-0.010887461197
1105.000000000000,3.5210689154e-4,-0.010094554933
1110.000000000000,3.5861880087e-4,-9.294836011e-3
1115.000000000000,3.6545559526e-4,-8.487708547e-3
1120.000000000000,3.7263319551e-4,-7.672553667e-3
1125.000000000000,3.8018898158e-4,-6.848746232e-3
1130.000000000000,3.8812364472e-4,-6.015598471e-3
1135.000000000000,3.9645728598e-4,-5.172409691e-3
1140.000000000000,4.0521159523e-4,-4.318446975e-3
1145.000000000000,4.1440998957e-4,-3.452942386e-3
1150.000000000000,4.2407776924e-4,-2.575089933e-3
1155.000000000000,4.3424229089e-4,-1.684042262e-3
1160.000000000000,4.4493316045e-4,-7.789070601e-4
1165.000000000000,4.5618244802e-4,1.4125688103e-4
1170.000000000000,4.6802492774e-4,0.0010774439655
1175.000000000000,4.8049834597e-4,0.0020307065110
1180.000000000000,4.9364372165e-4,0.0030021599289
1185.000000000000,5.0750568319e-4,0.0039929884250
1190.000000000000,5.2213284717e-4,0.0050044512847
1195.000000000000,5.3757824476e-4,0.0060378898153
1200.000000000000,5.5389980630e-4,0.0070947350320
