R 50.00000
Frequency (MHz),RE[Y11],IM[Y11],RE[Y12],IM[Y12],RE[Y21],IM[Y21],RE[Y22],IM[Y22]
100.0000000000000,1.7102227853e-4,0.0168405338737,-1.694663756e-4,-0.016672849867,-1.694663756e-4,-0.016672849867,1.7098427282e-4,0.0168367846940
102.0000000000000,1.7285857084e-4,0.0172011917923,-1.712912335e-4,-0.017030147707,-1.712912335e-4,-0.017030147707,1.7281991927e-4,0.0171973581005
104.0000000000000,1.7470219390e-4,0.0175633449182,-1.731233136e-4,-0.017388940502,-1.731233136e-4,-0.017388940502,1.7466291124e-4,0.0175594263135
106.0000000000000,1.7655430241e-4,0.0179270304286,-1.749637886e-4,-0.017749265408,-1.749637886e-4,-0.017749265408,1.7651440472e-4,0.0179230264771
108.0000000000000,1.7841604954e-4,0.0182922860036,-1.768138277e-4,-0.018111160087,-1.768138277e-4,-0.018111160087,1.7837555356e-4,0.0182881962404
110.0000000000000,1.8028858571e-4,0.0186591498408,-1.786745945e-4,-0.018474662720,-1.786745945e-4,-0.018474662720,1.8024750820e-4,0.0186549737710
112.0000000000000,1.8217305734e-4,0.0190276606696,-1.805472472e-4,-0.018839812017,-1.805472472e-4,-0.018839812017,1.8213141466e-4,0.0190233977698
114.0000000000000,1.8407060581e-4,0.0193978577670,-1.824329370e-4,-0.019206647238,-1.824329370e-4,-0.019206647238,1.8402841348e-4,0.0193935074865
116.0000000000000,1.8598236646e-4,0.0197697809737,-1.843328077e-4,-0.019575208207,-1.843328077e-4,-0.019575208207,1.8593963887e-4,0.0197653427355
118.0000000000000,1.8790946773e-4,0.0201434707112,-1.862479946e-4,-0.019945535328,-1.862479946e-4,-0.019945535328,1.8786621789e-4,0.0201389439129
120.0000000000000,1.8985303041e-4,0.0205189679988,-1.881796245e-4,-0.020317669605,-1.881796245e-4,-0.020317669605,1.8980926978e-4,0.0205143520136
122.0000000000000,1.9181416704e-4,0.0208963144724,-1.901288149e-4,-0.020691652658,-1.901288149e-4,-0.020691652658,1.9176990538e-4,0.0208916086498
124.0000000000000,1.9379398141e-4,0.0212755524029,-1.920966734e-4,-0.021067526742,-1.920966734e-4,-0.021067526742,1.9374922669e-4,0.0212707560690
126.0000000000000,1.9579356820e-4,0.0216567247156,-1.940842982e-4,-0.021445334768,-1.940842982e-4,-0.021445334768,1.9574832651e-4,0.0216518371742
128.0000000000000,1.9781401267e-4,0.0220398750105,-1.960927769e-4,-0.021825120320,-1.960927769e-4,-0.021825120320,1.9776828824e-4,0.0220348955431
130.0000000000000,1.9985639061e-4,0.0224250475828,-1.981231875e-4,-0.022206927680,-1.981231875e-4,-0.022206927680,1.9981018574e-4,0.0224199754494
132.0000000000000,2.0192176823e-4,0.0228122874446,-2.001765976e-4,-0.022590801845,-2.001765976e-4,-0.022590801845,2.0187508336e-4,0.0228071218835
134.0000000000000,2.0401120231e-4,0.0232016403461,-2.022540651e-4,-0.022976788552,-2.022540651e-4,-0.022976788552,2.0396403601e-4,0.0231963805748
136.0000000000000,2.0612574037e-4,0.0235931527990,-2.043566383e-4,-0.023364934299,-2.043566383e-4,-0.023364934299,2.0607808937e-4,0.0235877980139
138.0000000000000,2.0826642096e-4,0.0239868720992,-2.064853561e-4,-0.023755286369,-2.064853561e-4,-0.023755286369,2.0821828030e-4,0.0239814214759
140.0000000000000,2.1043427396e-4,0.0243828463518,-2.086412487e-4,-0.024147892853,-2.086412487e-4,-0.024147892853,2.1038563677e-4,0.0243772990455
142.0000000000000,2.1263032130e-4,0.0247811244939,-2.108253379e-4,-0.024542802674,-2.108253379e-4,-0.024542802674,2.1258117924e-4,0.0247754796389
144.0000000000000,2.1485557727e-4,0.0251817563217,-2.130386377e-4,-0.024940065618,-2.130386377e-4,-0.024940065618,2.1480592036e-4,0.0251760130318
146.0000000000000,2.1711104930e-4,0.0255847925159,-2.152821553e-4,-0.025339732351,-2.152821553e-4,-0.025339732351,2.1706086606e-4,0.0255789498843
148.0000000000000,2.1939773866e-4,0.0259902846687,-2.175568913e-4,-0.025741854453,-2.175568913e-4,-0.025741854453,2.1934701616e-4,0.0259843417679
150.0000000000000,2.2171664128e-4,0.0263982853112,-2.198638411e-4,-0.026146484441,-2.198638411e-4,-0.026146484441,2.2166536524e-4,0.0263922411928
152.0000000000000,2.2406874859e-4,0.0268088479422,-2.222039955e-4,-0.026553675804,-2.222039955e-4,-0.026553675804,2.2401690346e-4,0.0268027016370
154.0000000000000,2.2645504851e-4,0.0272220270574,-2.245783417e-4,-0.026963483022,-2.245783417e-4,-0.026963483022,2.2640261752e-4,0.0272157775748
156.0000000000000,2.2887652643e-4,0.0276378781794,-2.269878642e-4,-0.027375961606,-2.269878642e-4,-0.027375961606,2.2882349169e-4,0.0276315245075
158.0000000000000,2.3133416629e-4,0.0280564578889,-2.294335463e-4,-0.027791168125,-2.294335463e-4,-0.027791168125,2.3128050885e-4,0.0280499989943
160.0000000000000,2.3382895169e-4,0.0284778238566,-2.319163707e-4,-0.028209160235,-2.319163707e-4,-0.028209160235,2.3377465163e-4,0.0284712586840
162.0000000000000,2.3636186709e-4,0.0289020348765,-2.344373210e-4,-0.028629996719,-2.344373210e-4,-0.028629996719,2.3630690357e-4,0.0288953623482
164.0000000000000,2.3893389906e-4,0.0293291508995,-2.369973830e-4,-0.029053737513,-2.369973830e-4,-0.029053737513,2.3887825038e-4,0.0293223699154
166.0000000000000,2.4154603752e-4,0.0297592330683,-2.395975459e-4,-0.029480443748,-2.395975459e-4,-0.029480443748,2.4148968123e-4,0.0297523425056
168.0000000000000,2.4419927713e-4,0.0301923437542,-2.422388034e-4,-0.029910177781,-2.422388034e-4,-0.029910177781,2.4414219004e-4,0.0301853424665
170.0000000000000,2.4689461865e-4,0.0306285465938,-2.449221556e-4,-0.030343003235,-2.449221556e-4,-0.030343003235,2.4683677692e-4,0.0306214334111
172.0000000000000,2.4963307035e-4,0.0310679065273,-2.476486099e-4,-0.030778985038,-2.476486099e-4,-0.030778985038,2.4957444953e-4,0.0310606802557
174.0000000000000,2.5241564954e-4,0.0315104898389,-2.504191829e-4,-0.031218189459,-2.504191829e-4,-0.031218189459,2.5235622463e-4,0.0315031492596
176.0000000000000,2.5524338401e-4,0.0319563641969,-2.532349018e-4,-0.031660684152,-2.532349018e-4,-0.031660684152,2.5518312951e-4,0.0319489080664
178.0000000000000,2.5811731367e-4,0.0324055986968,-2.560968058e-4,-0.032106538200,-2.560968058e-4,-0.032106538200,2.5805620362e-4,0.0323980257456
180.0000000000000,2.6103849211e-4,0.0328582639043,-2.590059477e-4,-0.032555822153,-2.590059477e-4,-0.032555822153,2.6097650013e-4,0.0328505728371
182.0000000000000,2.6400798823e-4,0.0333144319008,-2.619633960e-4,-0.033008608077,-2.619633960e-4,-0.033008608077,2.6394508758e-4,0.0333066213956
184.0000000000000,2.6702688799e-4,0.0337741763301,-2.649702358e-4,-0.033464969602,-2.649702358e-4,-0.033464969602,2.6696305156e-4,0.0337662450376
186.0000000000000,2.7009629606e-4,0.0342375724466,-2.680275715e-4,-0.033924981966,-2.680275715e-4,-0.033924981966,2.7003149646e-4,0.0342295189896
188.0000000000000,2.7321733767e-4,0.0347046971650,-2.711365277e-4,-0.034388722069,-2.711365277e-4,-0.034388722069,2.7315154721e-4,0.0346965201380
190.0000000000000,2.7639116036e-4,0.0351756291123,-2.742982514e-4,-0.034856268522,-2.742982514e-4,-0.034856268522,2.7632435110e-4,0.0351673270805
192.0000000000000,2.7961893588e-4,0.0356504486807,-2.775139139e-4,-0.035327701700,-2.775139139e-4,-0.035327701700,2.7955107965e-4,0.0356420201797
194.0000000000000,2.8290186209e-4,0.0361292380835,-2.807847127e-4,-0.035803103801,-2.807847127e-4,-0.035803103801,2.8283293049e-4,0.0361206816183
196.0000000000000,2.8624116487e-4,0.0366120814119,-2.841118731e-4,-0.036282558897,-2.841118731e-4,-0.036282558897,2.8617112931e-4,0.0366033954562
198.0000000000000,2.8963810018e-4,0.0370990646945,-2.874966509e-4,-0.036766153002,-2.874966509e-4,-0.036766153002,2.8956693190e-4,0.0370902476901
200.0000000000000,2.9309395608e-4,0.0375902759587,-2.909403336e-4,-0.037253974124,-2.909403336e-4,-0.037253974124,2.9302162612e-4,0.0375813263148
202.0000000000000,2.9661005481e-4,0.0380858052944,-2.944442433e-4,-0.037746112335,-2.944442433e-4,-0.037746112335,2.9653653405e-4,0.0380767213864
204.0000000000000,3.0018775499e-4,0.0385857449200,-2.980097381e-4,-0.038242659835,-2.980097381e-4,-0.038242659835,3.0011301413e-4,0.0385765250890
206.0000000000000,3.0382845378e-4,0.0390901892509,-3.016382149e-4,-0.038743711020,-3.016382149e-4,-0.038743711020,3.0375246337e-4,0.0390808318028
208.0000000000000,3.0753358920e-4,0.0395992349701,-3.053311115e-4,-0.039249362554,-3.053311115e-4,-0.039249362554,3.0745631960e-4,0.0395897381747
210.0000000000000,3.1130464242e-4,0.0401129811028,-3.090899088e-4,-0.039759713442,-3.090899088e-4,-0.039759713442,3.1122606384e-4,0.0401033431927
212.0000000000000,3.1514314020e-4,0.0406315290917,-3.129161332e-4,-0.040274865107,-3.129161332e-4,-0.040274865107,3.1506322265e-4,0.0406217482617
214.0000000000000,3.1905065733e-4,0.0411549828772,-3.168113593e-4,-0.040794921467,-3.168113593e-4,-0.040794921467,3.1896937064e-4,0.0411450572830
216.0000000000000,3.2302881918e-4,0.0416834489796,-3.207772123e-4,-0.041319989023,-3.207772123e-4,-0.041319989023,3.2294613297e-4,0.0416733767370
218.0000000000000,3.2707930434e-4,0.0422170365845,-3.248153704e-4,-0.041850176937,-3.248153704e-4,-0.041850176937,3.2699518800e-4,0.0422068157682
220.0000000000000,3.3120384731e-4,0.0427558576320,-3.289275680e-4,-0.042385597126,-3.289275680e-4,-0.042385597126,3.3111827001e-4,0.0427454862746
222.0000000000000,3.3540424127e-4,0.0433000269090,-3.331155981e-4,-0.042926364356,-3.331155981e-4,-0.042926364356,3.3531717191e-4,0.0432895029999
224.0000000000000,3.3968234093e-4,0.0438496621448,-3.373813150e-4,-0.043472596331,-3.373813150e-4,-0.043472596331,3.3959374820e-4,0.0438389836288
226.0000000000000,3.4404006595e-4,0.0444048841144,-3.417266382e-4,-0.044024413803,-3.417266382e-4,-0.044024413803,3.4394991803e-4,0.0443940488912
228.0000000000000,3.4847940306e-4,0.0449658167354,-3.461535543e-4,-0.044581940664,-3.461535543e-4,-0.044581940664,3.4838766799e-4,0.0449548226576
230.0000000000000,3.5300241026e-4,0.0455325871835,-3.506641210e-4,-0.045145304063,-3.506641210e-4,-0.045145304063,3.5290905566e-4,0.0455214320556
232.0000000000000,3.5761121964e-4,0.0461053260013,-3.552604701e-4,-0.045714634519,-3.552604701e-4,-0.045714634519,3.5751621274e-4,0.0460940075784
234.0000000000000,3.6230804093e-4,0.0466841672165,-3.599448112e-4,-0.046290066030,-3.599448112e-4,-0.046290066030,3.6221134852e-4,0.0466726832031
236.0000000000000,3.6709516508e-4,0.0472692484637,-3.647194350e-4,-0.046871736205,-3.647194350e-4,-0.046871736205,3.6699675348e-4,0.0472575965120
238.0000000000000,3.7197496799e-4,0.0478607111120,-3.695867170e-4,-0.047459786385,-3.695867170e-4,-0.047459786385,3.7187480301e-4,0.0478488888206
240.0000000000000,3.7694991437e-4,0.0484587003971,-3.745491217e-4,-0.048054361775,-3.745491217e-4,-0.048054361775,3.7684796128e-4,0.0484467053097
242.0000000000000,3.8202256180e-4,0.0490633655601,-3.796092063e-4,-0.048655611586,-3.796092063e-4,-0.048655611586,3.8191878529e-4,0.0490511951634
244.0000000000000,3.8719556494e-4,0.0496748599910,-3.847696254e-4,-0.049263689179,-3.847696254e-4,-0.049263689179,3.8708992903e-4,0.0496625117135
246.0000000000000,3.9247167988e-4,0.0502933413792,-3.900331345e-4,-0.049878752211,-3.900331345e-4,-0.049878752211,3.9236414795e-4,0.0502808125894
248.0000000000000,3.9785376882e-4,0.0509189718704,-3.954025956e-4,-0.050500962796,-3.954025956e-4,-0.050500962796,3.9774430349e-4,0.0509062598752
250.0000000000000,4.0334480478e-4,0.0515519182302,-4.008809813e-4,-0.051130487664,-4.008809813e-4,-0.051130487664,4.0323336787e-4,0.0515390202729
252.0000000000000,4.0894787665e-4,0.0521923520148,-4.064713800e-4,-0.051767498340,-4.064713800e-4,-0.051767498340,4.0883442916e-4,0.0521792652735
254.0000000000000,4.1466619445e-4,0.0528404497500,-4.121770015e-4,-0.052412171312,-4.121770015e-4,-0.052412171312,4.1455069648e-4,0.0528271713353
256.0000000000000,4.2050309482e-4,0.0534963931167,-4.180011819e-4,-0.053064688226,-4.180011819e-4,-0.053064688226,4.2038550550e-4,0.0534829200701
258.0000000000000,4.2646204681e-4,0.0541603691466,-4.239473898e-4,-0.053725236076,-4.239473898e-4,-0.053725236076,4.2634232425e-4,0.0541466984381
260.0000000000000,4.3254665791e-4,0.0548325704256,-4.300192322e-4,-0.054394007409,-4.300192322e-4,-0.054394007409,4.3242475912e-4,0.0548186989516
262.0000000000000,4.3876068039e-4,0.0555131953063,-4.362204608e-4,-0.055071200539,-4.362204608e-4,-0.055071200539,4.3863656126e-4,0.0554991198878
264.0000000000000,4.4510801805e-4,0.0562024481316,-4.425549788e-4,-0.055757019767,-4.425549788e-4,-0.055757019767,4.4498163321e-4,0.0561881655112
266.0000000000000,4.5159273315e-4,0.0569005394674,-4.490268479e-4,-0.056451675618,-4.490268479e-4,-0.056451675618,4.5146403595e-4,0.0568860463073
268.0000000000000,4.5821905385e-4,0.0576076863465,-4.556402957e-4,-0.057155385082,-4.556402957e-4,-0.057155385082,4.5808799628e-4,0.0575929792260
270.0000000000000,4.6499138201e-4,0.0583241125249,-4.623997232e-4,-0.057868371869,-4.623997232e-4,-0.057868371869,4.6485791456e-4,0.0583091879378
272.0000000000000,4.7191430129e-4,0.0590500487489,-4.693097136e-4,-0.058590866681,-4.693097136e-4,-0.058590866681,4.7177837296e-4,0.0590349031005
274.0000000000000,4.7899258590e-4,0.0597857330359,-4.763750401e-4,-0.059323107487,-4.763750401e-4,-0.059323107487,4.7885414405e-4,0.0597703626406
276.0000000000000,4.8623120964e-4,0.0605314109689,-4.836006758e-4,-0.060065339822,-4.836006758e-4,-0.060065339822,4.8609019990e-4,0.0605158120471
278.0000000000000,4.9363535551e-4,0.0612873360047,-4.909918030e-4,-0.060817817092,-4.909918030e-4,-0.060817817092,4.9349172174e-4,0.0612715046797
280.0000000000000,5.0121042591e-4,0.0620537697978,-4.985538229e-4,-0.061580800900,-4.985538229e-4,-0.061580800900,5.0106411005e-4,0.0620377020926
282.0000000000000,5.0896205336e-4,0.0628309825398,-5.062923673e-4,-0.062354561384,-5.062923673e-4,-0.062354561384,5.0881299536e-4,0.0628146743741
284.0000000000000,5.1689611181e-4,0.0636192533168,-5.142133091e-4,-0.063139377576,-5.142133091e-4,-0.063139377576,5.1674424950e-4,0.0636027005032
286.0000000000000,5.2501872870e-4,0.0644188704836,-5.223227747e-4,-0.063935537772,-5.223227747e-4,-0.063935537772,5.2486399770e-4,0.0644020687243
288.0000000000000,5.3333629761e-4,0.0652301320576,-5.306271565e-4,-0.064743339931,-5.306271565e-4,-0.064743339931,5.3317863122e-4,0.0652130769406
290.0000000000000,5.4185549180e-4,0.0660533461329,-5.391331265e-4,-0.065563092087,-5.391331265e-4,-0.065563092087,5.4169482085e-4,0.0660360331280
292.0000000000000,5.5058327840e-4,0.0668888313154,-5.478476508e-4,-0.066395112783,-5.478476508e-4,-0.066395112783,5.5041953117e-4,0.0668712557703
294.0000000000000,5.5952693359e-4,0.0677369171813,-5.567780042e-4,-0.067239731529,-5.567780042e-4,-0.067239731529,5.5936003564e-4,0.0677190743173
296.0000000000000,5.6869405866e-4,0.0685979447591,-5.659317866e-4,-0.068097289288,-5.659317866e-4,-0.068097289288,5.6852393272e-4,0.0685798296666
298.0000000000000,5.7809259703e-4,0.0694722670370,-5.753169399e-4,-0.068968138978,-5.753169399e-4,-0.068968138978,5.7791916283e-4,0.0694538746712
300.0000000000000,5.8773085238e-4,0.0703602494988,-5.849417663e-4,-0.069852646010,-5.849417663e-4,-0.069852646010,5.8755402654e-4,0.0703415746745
302.0000000000000,5.9761750791e-4,0.0712622706869,-5.948149475e-4,-0.070751188854,-5.948149475e-4,-0.070751188854,5.9743720376e-4,0.0712433080738
304.0000000000000,6.0776164679e-4,0.0721787227977,-6.049455648e-4,-0.071664159627,-6.049455648e-4,-0.071664159627,6.0757777420e-4,0.0721594669147
306.0000000000000,6.1817277399e-4,0.0731100123084,-6.153431216e-4,-0.072591964729,-6.153431216e-4,-0.072591964729,6.1798523921e-4,0.0730904575188
308.0000000000000,6.2886083946e-4,0.0740565606399,-6.260175658e-4,-0.073535025496,-6.260175658e-4,-0.073535025496,6.2866954494e-4,0.0740367011450
310.0000000000000,6.3983626287e-4,0.0750188048556,-6.369793151e-4,-0.074493778907,-6.369793151e-4,-0.074493778907,6.3964110706e-4,0.0749986346889
312.0000000000000,6.5110995995e-4,0.0759971984009,-6.482392833e-4,-0.075468678317,-6.482392833e-4,-0.075468678317,6.5091083712e-4,0.0759767114219
314.0000000000000,6.6269337067e-4,0.0769922118840,-6.598089081e-4,-0.076460194244,-6.598089081e-4,-0.076460194244,6.6249017068e-4,0.0769714017714
316.0000000000000,6.7459848920e-4,0.0780043339025,-6.717001815e-4,-0.077468815190,-6.717001815e-4,-0.077468815190,6.7439109729e-4,0.0779831941476
318.0000000000000,6.8683789603e-4,0.0790340719178,-6.839256814e-4,-0.078495048515,-6.839256814e-4,-0.078495048515,6.8662619258e-4,0.0790125958168
320.0000000000000,6.9942479222e-4,0.0800819531807,-6.964986064e-4,-0.079539421369,-6.964986064e-4,-0.079539421369,6.9920865251e-4,0.0800601338274
322.0000000000000,7.1237303610e-4,0.0811485257126,-7.094328123e-4,-0.080602481665,-7.094328123e-4,-0.080602481665,7.1215233003e-4,0.0811263559903
324.0000000000000,7.2569718246e-4,0.0822343593450,-7.227428509e-4,-0.081684799123,-7.227428509e-4,-0.081684799123,7.2547177433e-4,0.0822118319181
326.0000000000000,7.3941252464e-4,0.0833400468222,-7.364440126e-4,-0.082786966373,-7.364440126e-4,-0.082786966373,7.3918227279e-4,0.0833171541274
328.0000000000000,7.5353513953e-4,0.0844662049718,-7.505523713e-4,-0.083909600122,-7.505523713e-4,-0.083909600122,7.5329989609e-4,0.0844429392089
330.0000000000000,7.6808193588e-4,0.0856134759472,-7.650848325e-4,-0.085053342397,-7.650848325e-4,-0.085053342397,7.6784154641e-4,0.0855898290691
332.0000000000000,7.8307070619e-4,0.0867825285476,-7.800591851e-4,-0.086218861868,-7.800591851e-4,-0.086218861868,7.8282500933e-4,0.0867584922503
334.0000000000000,7.9852018233e-4,0.0879740596221,-7.954941574e-4,-0.087406855248,-7.954941574e-4,-0.087406855248,7.9826900948e-4,0.0879496253340
336.0000000000000,8.1445009545e-4,0.0891887955629,-8.114094768e-4,-0.088618048789,-8.114094768e-4,-0.088618048789,8.1419327033e-4,0.0891639544331
338.0000000000000,8.3088124031e-4,0.0904274938949,-8.278259339e-4,-0.089853199866,-8.278259339e-4,-0.089853199866,8.3061857858e-4,0.0904022367812
340.0000000000000,8.4783554463e-4,0.0916909449686,-8.447654522e-4,-0.091113098678,-8.447654522e-4,-0.091113098678,8.4756685344e-4,0.0916652624254
342.0000000000000,8.6533614369e-4,0.0929799737657,-8.622511626e-4,-0.092398570046,-8.622511626e-4,-0.092398570046,8.6506122120e-4,0.0929538560302
344.0000000000000,8.8340746087e-4,0.0942954418240,-8.803074836e-4,-0.093710475339,-8.803074836e-4,-0.093710475339,8.8312609577e-4,0.0942688788021
346.0000000000000,9.0207529180e-4,0.0956382492881,-8.989602060e-4,-0.095049714529,-8.989602060e-4,-0.095049714529,9.0178726284e-4,0.0956112305395
348.0000000000000,9.2136691154e-4,0.0970093371265,-9.182365992e-4,-0.096417228400,-9.182365992e-4,-0.096417228400,9.2107198671e-4,0.0969818518502
350.0000000000000,9.4131114920e-4,0.0984096894346,-9.381654871e-4,-0.097814000857,-9.381654871e-4,-0.097814000857,9.4100908549e-4,0.0983817264500
352.0000000000000,9.6193852436e-4,0.0998403359882,-9.587773831e-4,-0.099241061476,-9.587773831e-4,-0.099241061476,9.6162906687e-4,0.0998118837195
354.0000000000000,9.8328135245e-4,0.1013023549100,-9.801045966e-4,-0.100699488171,-9.801045966e-4,-0.100699488171,9.8296423377e-4,0.1012734013666
356.0000000000000,0.0010053738762,0.1027968755527,-1.002181363e-3,-0.102190410075,-1.002181363e-3,-0.102190410075,0.0010050488156,0.1027674083099
358.0000000000000,0.0010282524050,0.1043250815867,-1.025043986e-3,-0.103715010630,-1.025043986e-3,-0.103715010630,0.0010279191079,0.1042950877646
360.0000000000000,0.0010519554669,0.1058882143140,-1.048730985e-3,-0.105274530897,-1.048730985e-3,-0.105274530897,0.0010516136236,0.1058576805555
362.0000000000000,0.0010765239731,0.1074875762271,-1.073283264e-3,-0.106870273115,-1.073283264e-3,-0.106870273115,0.0010761732581,0.1074564886740
364.0000000000000,0.0011020013970,0.1091245348344,-1.098744287e-3,-0.108503604530,-1.098744287e-3,-0.108503604530,0.0011016414681,0.1090928791028
366.0000000000000,0.0011284339699,0.1108005267773,-1.125160277e-3,-0.110175961504,-1.125160277e-3,-0.110175961504,0.0011280644670,0.1107682879307
368.0000000000000,0.0011558708936,0.1125170622632,-1.152580426e-3,-0.111888853953,-1.152580426e-3,-0.111888853953,0.0011554914375,0.1124842247843
