R 50.00000
Frequency (MHz),RE[Y11],IM[Y11],RE[Y12],IM[Y12],RE[Y21],IM[Y21],RE[Y22],IM[Y22]
100.0000000000000,1.5409544150e-4,0.0152478827592,-1.526243980e-4,-0.015089421219,-1.526243980e-4,-0.015089421219,1.5404753833e-4,0.0152430786765
105.0000000000000,1.5974171162e-4,0.0160584752688,-1.579314372e-4,-0.015891824998,-1.579314372e-4,-0.015891824998,1.5969494579e-4,0.0160534020456
110.0000000000000,1.6501888408e-4,0.0168764383960,-1.629667839e-4,-0.016701719493,-1.629667839e-4,-0.016701719493,1.6497137129e-4,0.0168710939255
115.0000000000000,1.7000124447e-4,0.0177022424949,-1.677879210e-4,-0.017519533378,-1.677879210e-4,-0.017519533378,1.6995186336e-4,0.0176966242348
120.0000000000000,1.7475471427e-4,0.0185363642353,-1.724446831e-4,-0.018345713486,-1.724446831e-4,-0.018345713486,1.7470287064e-4,0.0185304691667
125.0000000000000,1.7933795535e-4,0.0193792895364,-1.769812090e-4,-0.019180724680,-1.769812090e-4,-0.019180724680,1.7928340605e-4,0.0193731141578
130.0000000000000,1.8380337733e-4,0.0202315160288,-1.814372992e-4,-0.020025049996,-1.814372992e-4,-0.020025049996,1.8374610122e-4,0.0202250563684
135.0000000000000,1.8819802481e-4,0.0210935551987,-1.858493634e-4,-0.020879191040,-1.858493634e-4,-0.020879191040,1.8813812998e-4,0.0210868068358
140.0000000000000,1.9256434325e-4,0.0219659343319,-1.902510891e-4,-0.021743668621,-1.902510891e-4,-0.021743668621,1.9250200173e-4,0.0219588924202
145.0000000000000,1.9694083315e-4,0.0228491983406,-1.946739172e-4,-0.022619023611,-1.946739172e-4,-0.022619023611,1.9687623631e-4,0.0228418576304
150.0000000000000,2.0136260630e-4,0.0237439115364,-1.991473886e-4,-0.023505817996,-1.991473886e-4,-0.023505817996,2.0129593542e-4,0.0237362663930
155.0000000000000,2.0586185918e-4,0.0246506593958,-2.036994033e-4,-0.024404636109,-2.036994033e-4,-0.024404636109,2.0579326712e-4,0.0246427038142
160.0000000000000,2.1046827759e-4,0.0255700503556,-2.083564220e-4,-0.025316086044,-2.083564220e-4,-0.025316086044,2.1039787842e-4,0.0255617779701
165.0000000000000,2.1520938535e-4,0.0265027176665,-2.131436305e-4,-0.026240801217,-2.131436305e-4,-0.026240801217,2.1513724955e-4,0.0264941217556
170.0000000000000,2.2011084811e-4,0.0274493213273,-2.180850798e-4,-0.027179442109,-2.180850798e-4,-0.027179442109,2.2003700153e-4,0.0274403948149
175.0000000000000,2.2519674147e-4,0.0284105501234,-2.232038134e-4,-0.028132698148,-2.232038134e-4,-0.028132698148,2.2512116693e-4,0.0284012855750
180.0000000000000,2.3048979148e-4,0.0293871237850,-2.285219877e-4,-0.029101289775,-2.285219877e-4,-0.029101289775,2.3041243179e-4,0.0293775134008
185.0000000000000,2.3601159386e-4,0.0303797952857,-2.340609891e-4,-0.030085970666,-2.340609891e-4,-0.030085970666,2.3593235579e-4,0.0303698308900
190.0000000000000,2.4178281592e-4,0.0313893532992,-2.398415522e-4,-0.031087530146,-2.398415522e-4,-0.031087530146,2.4170157458e-4,0.0313790263267
195.0000000000000,2.4782339004e-4,0.0324166248278,-2.458838828e-4,-0.032106795790,-2.458838828e-4,-0.032106795790,2.4773999318e-4,0.0324059263070
200.0000000000000,2.5415269477e-4,0.0334624780321,-2.522077821e-4,-0.033144636229,-2.522077821e-4,-0.033144636229,2.5406696702e-4,0.0334513985666
205.0000000000000,2.6078973414e-4,0.0345278252734,-2.588327793e-4,-0.034201964192,-2.588327793e-4,-0.034201964192,2.6070148079e-4,0.0345163550194
210.0000000000000,2.6775331312e-4,0.0356136263960,-2.657782700e-4,-0.035279739780,-2.657782700e-4,-0.035279739780,2.6766232358e-4,0.0356017550388
215.0000000000000,2.7506221304e-4,0.0367208922753,-2.730636619e-4,-0.036378974019,-2.730636619e-4,-0.036378974019,2.7496826371e-4,0.0367086090023
220.0000000000000,2.8273536869e-4,0.0378506886577,-2.807085283e-4,-0.037500732706,-2.807085283e-4,-0.037500732706,2.8263822541e-4,0.0378379821294
225.0000000000000,2.9079204887e-4,0.0390041403246,-2.887327709e-4,-0.038646140573,-2.887327709e-4,-0.038646140573,2.9069146878e-4,0.0389909986435
230.0000000000000,2.9925204217e-4,0.0401824356148,-2.971567917e-4,-0.039816385824,-2.971567917e-4,-0.039816385824,2.9914777517e-4,0.0401688462915
235.0000000000000,3.0813584966e-4,0.0413868313446,-3.060016755e-4,-0.041012725056,-3.060016755e-4,-0.041012725056,3.0802763933e-4,0.0413727812610
240.0000000000000,3.1746488621e-4,0.0426186581682,-3.152893846e-4,-0.042236488631,-3.152893846e-4,-0.042236488631,3.1735247034e-4,0.0426041335384
245.0000000000000,3.2726169237e-4,0.0438793264279,-3.250429650e-4,-0.043489086531,-3.250429650e-4,-0.043489086531,3.2714480308e-4,0.0438643127557
250.0000000000000,3.3755015867e-4,0.0451703325495,-3.352867687e-4,-0.044772014760,-3.352867687e-4,-0.044772014760,3.3742852212e-4,0.0451548145832
255.0000000000000,3.4835576476e-4,0.0464932660439,-3.460466908e-4,-0.046086862350,-3.460466908e-4,-0.046086862350,3.4822910056e-4,0.0464772277269
260.0000000000000,3.5970583565e-4,0.0478498171863,-3.573504258e-4,-0.047435319047,-3.573504258e-4,-0.047435319047,3.5957385594e-4,0.0478332416043
265.0000000000000,3.7162981812e-4,0.0492417854512,-3.692277445e-4,-0.048819183747,-3.692277445e-4,-0.048819183747,3.7149222628e-4,0.0492246547750
270.0000000000000,3.8415958012e-4,0.0506710887926,-3.817107954e-4,-0.050240373781,-3.817107954e-4,-0.050240373781,3.8401606927e-4,0.0506533842165
275.0000000000000,3.9732973802e-4,0.0521397738821,-3.948344331e-4,-0.051700935156,-3.948344331e-4,-0.051700935156,3.9717998940e-4,0.0521214755571
280.0000000000000,4.1117801323e-4,0.0536500273905,-4.086365778e-4,-0.053203053836,-4.086365778e-4,-0.053203053836,4.1102169386e-4,0.0536311143511
285.0000000000000,4.2574562746e-4,0.0552041884969,-4.231586128e-4,-0.054749068249,-4.231586128e-4,-0.054749068249,4.2558238807e-4,0.0551846385829
290.0000000000000,4.4107773824e-4,0.0568047627281,-4.384458230e-4,-0.056341483132,-4.384458230e-4,-0.056341483132,4.4090721063e-4,0.0567845524983
295.0000000000000,4.5722392384e-4,0.0584544373317,-4.545478821e-4,-0.057982984897,-4.545478821e-4,-0.057982984897,4.5704571807e-4,0.0584335419701
300.0000000000000,4.7423872473e-4,0.0601560983754,-4.715193973e-4,-0.059676458732,-4.715193973e-4,-0.059676458732,4.7405242602e-4,0.0601344915892
305.0000000000000,4.9218225093e-4,0.0619128498053,-4.894205189e-4,-0.061425007652,-4.894205189e-4,-0.061425007652,4.9198741622e-4,0.0618905037127
310.0000000000000,5.1112086603e-4,0.0637280347305,-5.083176271e-4,-0.063231973781,-5.083176271e-4,-0.063231973781,5.1091702026e-4,0.0637049197375
315.0000000000000,5.3112796082e-4,0.0656052592449,-5.282841081e-4,-0.065100962171,-5.282841081e-4,-0.065100962171,5.3091459280e-4,0.0655813439105
320.0000000000000,5.5228483160e-4,0.0675484191468,-5.494012345e-4,-0.067035867512,-5.494012345e-4,-0.067035867512,5.5206138947e-4,0.0675236700342
325.0000000000000,5.7468168122e-4,0.0695617299770,-5.717591688e-4,-0.069040904164,-5.717591688e-4,-0.069040904164,5.7444756743e-4,0.0695361114892
330.0000000000000,5.9841876428e-4,0.0716497608663,-5.954581100e-4,-0.071120639995,-5.954581100e-4,-0.071120639995,5.9817333003e-4,0.0716232350649
335.0000000000000,6.2360770212e-4,0.0738174727693,-6.206096107e-4,-0.073280034609,-6.206096107e-4,-0.073280034609,6.2335024114e-4,0.0737899991731
340.0000000000000,6.5037299837e-4,0.0760702617624,-6.473380940e-4,-0.075524482627,-6.473380940e-4,-0.075524482627,6.5010274001e-4,0.0760417971245
345.0000000000000,6.7885379205e-4,0.0784140082073,-6.757826078e-4,-0.077859862841,-6.757826078e-4,-0.077859862841,6.7856989347e-4,0.0783845062661
350.0000000000000,7.0920589304e-4,0.0808551327271,-7.060988613e-4,-0.080292594176,-7.060988613e-4,-0.080292594176,7.0890743044e-4,0.0808245439292
355.0000000000000,7.4160415434e-4,0.0834006601243,-7.384615982e-4,-0.082829699587,-7.384615982e-4,-0.082829699587,7.4129011297e-4,0.0833689313145
360.0000000000000,7.7624524740e-4,0.0860582925866,-7.730673725e-4,-0.085478879251,-7.730673725e-4,-0.085478879251,7.7591451023e-4,0.0860253666597
365.0000000000000,8.1335092178e-4,0.0888364937933,-8.101378083e-4,-0.088248594647,-8.101378083e-4,-0.088248594647,8.1300225653e-4,0.0888023093034
370.0000000000000,8.5317184937e-4,0.0917445858657,-8.499234440e-4,-0.091148165483,-8.499234440e-4,-0.091148165483,8.5280389358e-4,0.0917090765857
375.0000000000000,8.9599217683e-4,0.0947928615091,-8.927082849e-4,-0.094187881809,-8.927082849e-4,-0.094187881809,8.9560342066e-4,0.0947559559318
380.0000000000000,9.4213494040e-4,0.0979927141961,-9.388152164e-4,-0.097379134163,-9.388152164e-4,-0.097379134163,9.4172370670e-4,0.0979543349690
385.0000000000000,9.9196853577e-4,0.1013567898738,-9.886124739e-4,-0.100734565242,-9.886124739e-4,-0.100734565242,9.9153295683e-4,0.1013168531559
390.0000000000000,0.0010459144854,0.1048991644611,-1.042521408e-3,-0.104268247353,-1.042521408e-3,-0.104268247353,0.0010454524757,0.1048575791880
395.0000000000000,0.0011044568099,0.1086355524006,-1.101025854e-3,-0.107995890907,-1.101025854e-3,-0.107995890907,0.0011039660344,0.1085922194435
400.0000000000000,0.0011681533949,0.1125835527962,-1.164683496e-3,-0.111935090499,-1.164683496e-3,-0.111935090499,0.0011676312310,0.1125383639927
405.0000000000000,0.0012376498540,0.1167629412782,-1.234139727e-3,-0.116105616690,-1.234139727e-3,-0.116105616690,0.0012370933466,0.1167157783147
410.0000000000000,0.0013136965351,0.1211960178291,-1.310144652e-3,-0.120529763750,-1.310144652e-3,-0.120529763750,0.0013131023436,0.1211467509435
415.0000000000000,0.0013971695142,0.1259080234938,-1.393574073e-3,-0.125232766256,-1.393574073e-3,-0.125232766256,0.0013965338476,0.1258565099643
420.0000000000000,0.0014890966799,0.1309276424374,-1.485455571e-3,-0.130243301021,-1.485455571e-3,-0.130243301021,0.0014884152196,0.1308737248132
425.0000000000000,0.0015906903735,0.1362876104588,-1.587001137e-3,-0.135594095454,-1.587001137e-3,-0.135594095454,0.0015899581786,0.1362311144782
430.0000000000000,0.0017033885362,0.1420254572593,-1.699648307e-3,-0.141322669632,-1.699648307e-3,-0.141322669632,0.0017025999284,0.1419661893860
435.0000000000000,0.0018289069981,0.1481844180663,-1.825112436e-3,-0.147472247694,-1.825112436e-3,-0.147472247694,0.0018280554193,0.1481221625573
440.0000000000000,0.0019693064948,0.1548145614682,-1.965453703e-3,-0.154092885383,-1.965453703e-3,-0.154092885383,0.0019683843304,0.1547490768623
445.0000000000000,0.0021270793536,0.1619741957417,-2.123163770e-3,-0.161242876013,-2.123163770e-3,-0.161242876013,0.0021260777119,0.1619052106250
450.0000000000000,0.0023052627378,0.1697316373312,-2.301279000e-3,-0.168990518492,-2.301279000e-3,-0.168990518492,0.0023041711703,0.1696588451933
455.0000000000000,0.0025075881731,0.1781674551453,-2.503529941e-3,-0.177416361041,-2.503529941e-3,-0.177416361041,0.0025063943193,0.1780905080826
460.0000000000000,0.0027386812845,0.1873773470174,-2.734541017e-3,-0.186616076920,-2.734541017e-3,-0.186616076920,0.0027373704135,0.1872958479580
465.0000000000000,0.0030043319836,0.1974758662645,-3.000100642e-3,-0.196704190023,-3.000100642e-3,-0.196704190023,0.0030028863974,0.1973893592776
470.0000000000000,0.0033118650167,0.2086013065785,-3.307531673e-3,-0.207818958516,-3.307531673e-3,-0.207818958516,0.0033102632633,0.2085092646731
475.0000000000000,0.0036706558693,0.2209221881540,-3.666207184e-3,-0.220128859299,-3.666207184e-3,-0.220128859299,0.0036688716915,0.2208239977445
480.0000000000000,0.0040928610622,0.2346459926379,-4.088280573e-3,-0.233841320706,-4.088280573e-3,-0.233841320706,0.0040908619713,0.2345409335200
485.0000000000000,0.0045944710834,0.2500311120614,-4.589738225e-3,-0.249214668374,-4.589738225e-3,-0.249214668374,0.0045922163929,0.2499183312469
490.0000000000000,0.0051968598116,0.2674034810880,-5.191948536e-3,-0.266574753208,-5.191948536e-3,-0.266574753208,0.0051942978762,0.2672819580918
495.0000000000000,0.0059291172635,0.2871801829496,-5.923994061e-3,-0.286338551255,-5.923994061e-3,-0.286338551255,0.0059261815206,0.2870486829439
500.0000000000000,0.0068316533513,0.3099036951289,-6.826274351e-3,-0.309048400583,-6.826274351e-3,-0.309048400583,0.0068282565133,0.3097607044972
505.0000000000000,0.0079619305642,0.3362928210805,-7.956237157e-3,-0.335422919914,-7.956237157e-3,-0.335422919914,0.0079579558686,0.3361364567952
510.0000000000000,0.0094038945305,0.3673206255141,-9.397806576e-3,-0.366434923873,-9.397806576e-3,-0.366434923873,0.0093991821492,0.3671485044588
515.0000000000000,0.0112841030276,0.4043376825826,-0.011277507918,-0.403434639508,-0.011277507918,-0.403434639508,0.0112784281968,0.4041467275310
520.0000000000000,0.0138005989789,0.4492746420753,-0.013793333292,-0.448352220412,-0.013793333292,-0.448352220412,0.0137936353060,0.4490607835606
525.0000000000000,0.0172774818999,0.5049907495589,-0.017269299038,-0.504046177300,-0.017269299038,-0.504046177300,0.0172687366514,0.5047484486193
530.0000000000000,0.0222750701676,0.5759075567795,-0.022265579712,-0.574936925532,-0.022265579712,-0.574936925532,0.0222637629902,0.5756290020051
535.0000000000000,0.0298311949760,0.6692424727868,-0.029819740076,-0.668240019207,-0.029819740076,-0.668240019207,0.0298160127043,0.6689161433732
540.0000000000000,0.0420477284283,0.7976264791372,-0.042033112552,-0.796583193577,-0.042033112552,-0.796583193577,0.0420262786587,0.7972343625390
545.0000000000000,0.0637275110348,0.9853254231947,-0.063707304273,-0.984226059385,-0.063707304273,-0.984226059385,0.0636949349064,0.9848370352650
550.0000000000000,0.1079194468130,1.2855204264013,-0.107887867754,-1.284336069780,-0.107887867754,-1.284336069780,0.1078641833014,1.2848779499639
555.0000000000000,0.2211847437603,1.8407282467623,-0.221124050231,-1.839393353527,-0.221124050231,-1.839393353527,0.2210713133774,1.8398006156176
560.0000000000000,0.6796585716268,3.1903818297505,-0.679480074996,-3.188692208692,-0.679480074996,-3.188692208692,0.6793096201761,3.1887607185699
565.0000000000000,7.6544127824450,7.8805027188502,-7.652441904643,-7.877599596289,-7.652441904643,-7.877599596289,7.6504795843871,7.8764708057059
570.0000000000000,1.9534489751143,-5.215086163072,-1.952942721648,5.2146312872013,-1.952942721648,5.2146312872013,1.9524447048279,-5.212387048624
575.0000000000000,0.3806650772518,-2.436877670332,-0.380563118392,2.4371445915026,-0.380563118392,2.4371445915026,0.3804693478526,-2.435606065906
580.0000000000000,0.1541638314973,-1.566970660633,-0.154120091414,1.5674689928538,-0.154120091414,1.5674689928538,0.1540845804985,-1.566145915444
585.0000000000000,0.0826417450716,-1.153322806110,-0.082616375315,1.1539352969241,-0.082616375315,1.1539352969241,0.0825992860127,-1.152710440495
590.0000000000000,0.0513429228224,-0.912550180936,-0.051325578912,0.9132324041697,-0.051325578912,0.9132324041697,0.0513165695834,-0.912061349023
595.0000000000000,0.0349366930666,-0.755190238542,-0.034923544164,0.7559207592764,-0.034923544164,0.7559207592764,0.0349187851168,-0.754782070996
600.0000000000000,0.0252874409029,-0.644335499504,-0.025276748524,0.6451023678898,-0.025276748524,0.6451023678898,0.0252745018726,-0.643984094628
605.0000000000000,0.0191395407983,-0.562029250035,-0.019130403887,0.5628251310634,-0.019130403887,0.5628251310634,0.0191297689448,-0.561719934563
610.0000000000000,0.0149848540052,-0.498497109893,-0.014976759499,0.4993171805748,-0.014976759499,0.4993171805748,0.0149772234576,-0.498220233883
615.0000000000000,0.0120473611678,-0.447966492368,-0.012039995679,0.4488074132825,-0.012039995679,0.4488074132825,0.0120412453429,-0.447715372569
620.0000000000000,0.0098947921043,-0.406809983347,-9.887953489e-3,0.4076693473418,-9.887953489e-3,0.4076693473418,0.0098897868692,-0.406579800735
625.0000000000000,0.0082709204680,-0.372634074497,-8.264472535e-3,0.3735100895731,-8.264472535e-3,0.3735100895731,0.0082667535658,-0.372421240128
630.0000000000000,0.0070160747538,-0.343795846346,-7.009922417e-3,0.3446871427600,-7.009922417e-3,0.3446871427600,0.0070125561209,-0.343597615608
635.0000000000000,0.0060265675811,-0.319130239540,-6.020642453e-3,0.3200357469916,-6.020642453e-3,0.3200357469916,0.0060235605363,-0.318944466561
640.0000000000000,0.0052327006752,-0.297788147658,-5.226952319e-3,0.2987070140910,-5.226952319e-3,0.2987070140910,0.0052301044264,-0.297613122929
645.0000000000000,0.0045862266019,-0.279136142036,-4.580617008e-3,0.2800676782107,-4.580617008e-3,0.2800676782107,0.0045839652044,-0.278970481567
650.0000000000000,0.0040528912116,-0.262692097312,-4.047391197e-3,0.2636357379196,-4.047391197e-3,0.2636357379196,0.0040509063636,-0.262534664873
655.0000000000000,0.0036078344321,-0.248082569781,-3.602421221e-3,0.2490378455079,-3.602421221e-3,0.2490378455079,0.0036060806413,-0.247932421038
660.0000000000000,0.0032326606135,-0.235013812501,-3.227316169e-3,0.2359803295512,-3.227316169e-3,0.2359803295512,0.0032311018633,-0.234870154067
665.0000000000000,0.0029135234755,-0.223251594643,-2.908233332e-3,0.2242290194412,-2.908233332e-3,0.2242290194412,0.0029121308856,-0.223113753486
670.0000000000000,0.0026398402312,-0.212606856716,-2.634592650e-3,0.2135949042961,-2.634592650e-3,0.2135949042961,0.0026385903759,-0.212474256941
675.0000000000000,0.0024034108996,-0.202925323143,-2.398196257e-3,0.2039237482085,-2.398196257e-3,0.2039237482085,0.0024022845802,-0.202797468117
680.0000000000000,0.0021978027546,-0.194079854807,-2.192613086e-3,0.1950884447575,-2.192613086e-3,0.1950884447575,0.0021967840893,-0.193956313212
685.0000000000000,0.0020179124660,-0.185964733978,-2.012741121e-3,0.1869833034031,-2.012741121e-3,0.1869833034031,0.0020169882038,-0.185845128802
690.0000000000000,0.0018596500631,-0.178491334963,-1.854491447e-3,0.1795197212471,-1.854491447e-3,0.1795197212471,0.0018588090643,-0.178375334713
695.0000000000000,0.0017197066134,-0.171584803933,-1.714555985e-3,0.1726228637170,-1.714555985e-3,0.1726228637170,0.0017189394452,-0.171472115557
700.0000000000000,0.0015953819790,-0.165181483603,-1.590235291e-3,0.1662290899046,-1.590235291e-3,0.1662290899046,0.0015946806001,-0.165071846738
705.0000000000000,0.0014844555878,-0.159226894861,-1.479309365e-3,0.1602839347161,-1.479309365e-3,0.1602839347161,0.0014838131037,-0.159120077111
710.0000000000000,0.0013850876393,-0.153674139862,-1.379938881e-3,0.1547405123764,-1.379938881e-3,0.1547405123764,0.0013844981050,-0.153569932905
715.0000000000000,0.0012957434825,-0.148482627247,-1.290589582e-3,0.1495582419711,-1.290589582e-3,0.1495582419711,0.0012952017454,-0.148380843591
720.0000000000000,0.0012151349020,-0.143617046188,-1.209973583e-3,0.1447018217619,-1.209973583e-3,0.1447018217619,0.0012146364745,-0.143517516456
725.0000000000000,0.0011421741649,-0.139046534392,-1.137003431e-3,0.1401403974014,-1.137003431e-3,0.1401403974014,0.0011417151212,-0.138949105039
730.0000000000000,0.0010759377577,-0.134743998589,-1.070755848e-3,0.1358468825918,-1.070755848e-3,0.1358468825918,0.0010755146490,-0.134648529957
735.0000000000000,0.0010156375457,-0.130685555854,-1.010442903e-3,0.1317974005598,-1.010442903e-3,0.1317974005598,0.0010152473304,-0.130591920529
740.0000000000000,9.6059766982e-4,-0.126850071445,-9.553889076e-4,0.1279708220022,-9.553889076e-4,0.1279708220022,9.6023765553e-4,-0.126758152839
745.0000000000000,9.1023591209e-4,-0.123218774218,-9.050117938e-4,0.1243483806087,-9.050117938e-4,0.1243483806087,9.0990370722e-4,-0.123128465356
750.0000000000000,8.6404856960e-4,-0.119774934865,-8.588079866e-4,0.1209133513777,-8.588079866e-4,0.1209133513777,8.6374204298e-4,-0.119686137332
755.0000000000000,8.2159810200e-4,-0.116503595306,-8.163400574e-4,0.1176507800803,-8.163400574e-4,0.1176507800803,8.2131534864e-4,-0.116416218340
760.0000000000000,7.8250298632e-4,-0.113391340000,-7.772265801e-4,0.1145472546270,-7.772265801e-4,0.1145472546270,7.8224229852e-4,-0.113305299694
765.0000000000000,7.4642933992e-4,-0.110426101781,-7.411337572e-4,0.1115907109581,-7.411337572e-4,0.1115907109581,7.4618918264e-4,-0.110341320392
770.0000000000000,7.1308396804e-4,-0.107596996299,-7.077684686e-4,0.1087702675225,-7.077684686e-4,0.1087702675225,7.1286295794e-4,-0.107513401639
