R 50.00000
Frequency (MHz),RE[Y11],IM[Y11],RE[Y12],IM[Y12],RE[Y21],IM[Y21],RE[Y22],IM[Y22]
100.0000000000000,1.1998378509e-4,0.0119799119796,-1.186745137e-4,-0.011839514784,-1.186745137e-4,-0.011839514784,1.1992544267e-4,0.0119739421183
105.0000000000000,1.2274242604e-4,0.0126048072915,-1.214108940e-4,-0.012457376628,-1.214108940e-4,-0.012457376628,1.2267915810e-4,0.0125985159476
110.0000000000000,1.2554615549e-4,0.0132336663445,-1.241908972e-4,-0.013079201008,-1.241908972e-4,-0.013079201008,1.2547921055e-4,0.0132270524840
115.0000000000000,1.2839930848e-4,0.0138667039265,-1.270193397e-4,-0.013705202628,-1.270193397e-4,-0.013705202628,1.2832979532e-4,0.0138597658477
120.0000000000000,1.3130563512e-4,0.0145041401586,-1.299003360e-4,-0.014335601468,-1.299003360e-4,-0.014335601468,1.3123450741e-4,0.0144968755941
125.0000000000000,1.3426846721e-4,0.0151462007795,-1.328374873e-4,-0.014970623088,-1.328374873e-4,-0.014970623088,1.3419652033e-4,0.0151386069781
130.0000000000000,1.3729084714e-4,0.0157931174320,-1.358340294e-4,-0.015610498939,-1.358340294e-4,-0.015610498939,1.3721872286e-4,0.0157851912250
135.0000000000000,1.4037562757e-4,0.0164451279605,-1.388929491e-4,-0.016255466666,-1.388929491e-4,-0.016255466666,1.4030382337e-4,0.0164368658138
140.0000000000000,1.4352554870e-4,0.0171024767230,-1.420170751e-4,-0.016905770432,-1.420170751e-4,-0.016905770432,1.4345442981e-4,0.0170938747778
145.0000000000000,1.4674329867e-4,0.0177654149220,-1.452091493e-4,-0.017561661251,-1.452091493e-4,-0.017561661251,1.4667311118e-4,0.0177564690264
150.0000000000000,1.5003156102e-4,0.0184342009563,-1.484718833e-4,-0.018223397341,-1.484718833e-4,-0.018223397341,1.4996244544e-4,0.0184249066888
155.0000000000000,1.5339305289e-4,0.0191091007946,-1.518080034e-4,-0.018891244496,-1.518080034e-4,-0.018891244496,1.5332505726e-4,0.0190994534816
160.0000000000000,1.5683055597e-4,0.0197903883732,-1.552202871e-4,-0.019565476489,-1.552202871e-4,-0.019565476489,1.5676364841e-4,0.0197803831015
165.0000000000000,1.6034694250e-4,0.0204783460192,-1.587115932e-4,-0.020246375486,-1.587115932e-4,-0.020246375486,1.6028102275e-4,0.0204679776435
170.0000000000000,1.6394519737e-4,0.0211732648996,-1.622848874e-4,-0.020934232504,-1.622848874e-4,-0.020934232504,1.6388010753e-4,0.0211625280471
175.0000000000000,1.6762843774e-4,0.0218754454980,-1.659432640e-4,-0.021629347876,-1.659432640e-4,-0.021629347876,1.6756397187e-4,0.0218643345701
180.0000000000000,1.7139993079e-4,0.0225851981217,-1.696899656e-4,-0.022332031766,-1.696899656e-4,-0.022332031766,1.7133584354e-4,0.0225737072927
185.0000000000000,1.7526311027e-4,0.0233028434385,-1.735284008e-4,-0.023042604698,-1.735284008e-4,-0.023042604698,1.7519912458e-4,0.0232909666527
190.0000000000000,1.7922159245e-4,0.0240287130475,-1.774621615e-4,-0.023761398128,-1.774621615e-4,-0.023761398128,1.7915740636e-4,0.0240164440141
195.0000000000000,1.8327919170e-4,0.0247631500841,-1.814950386e-4,-0.024488755050,-1.814950386e-4,-0.024488755050,1.8321448425e-4,0.0247504822710
200.0000000000000,1.8743993613e-4,0.0255065098627,-1.856310385e-4,-0.025225030632,-1.856310385e-4,-0.025225030632,1.8737437259e-4,0.0254934364889
205.0000000000000,1.9170808350e-4,0.0262591605594,-1.898743989e-4,-0.025970592905,-1.898743989e-4,-0.025970592905,1.9164131979e-4,0.0262456745857
210.0000000000000,1.9608813756e-4,0.0270214839370,-1.942296058e-4,-0.026725823481,-1.942296058e-4,-0.026725823481,1.9601982411e-4,0.0270075780561
215.0000000000000,2.0058486509e-4,0.0277938761158,-1.987014097e-4,-0.027491118327,-1.987014097e-4,-0.027491118327,2.0051465008e-4,0.0277795427414
220.0000000000000,2.0520331381e-4,0.0285767483938,-2.032948445e-4,-0.028266888579,-2.032948445e-4,-0.028266888579,2.0513084591e-4,0.0285619796480
225.0000000000000,2.0994883119e-4,0.0293705281189,-2.080152454e-4,-0.029053561423,-2.080152454e-4,-0.029053561423,2.0987376178e-4,0.0293553158202
230.0000000000000,2.1482708448e-4,0.0301756596192,-2.128682694e-4,-0.029851581016,-2.128682694e-4,-0.029851581016,2.1474906952e-4,0.0301599952677
235.0000000000000,2.1984408202e-4,0.0309926051930,-2.178599160e-4,-0.030661409477,-2.178599160e-4,-0.030661409477,2.1976278346e-4,0.0309764799564
240.0000000000000,2.2500619599e-4,0.0318218461660,-2.229965501e-4,-0.031483527947,-2.229965501e-4,-0.031483527947,2.2492128289e-4,0.0318052508635
245.0000000000000,2.3032018680e-4,0.0326638840191,-2.282849264e-4,-0.032318437714,-2.282849264e-4,-0.032318437714,2.3023133616e-4,0.0326468091052
250.0000000000000,2.3579322931e-4,0.0335192415937,-2.337322149e-4,-0.033166661418,-2.337322149e-4,-0.033166661418,2.3570012654e-4,0.0335016771403
255.0000000000000,2.4143294100e-4,0.0343884643800,-2.393460294e-4,-0.034028744337,-2.393460294e-4,-0.034028744337,2.4133528023e-4,0.0343704000583
260.0000000000000,2.4724741238e-4,0.0352721218955,-2.451344576e-4,-0.034905255768,-2.451344576e-4,-0.034905255768,2.4714489650e-4,0.0352535469563
265.0000000000000,2.5324523983e-4,0.0361708091619,-2.511060937e-4,-0.035796790501,-2.511060937e-4,-0.035796790501,2.5313758037e-4,0.0361517124148
270.0000000000000,2.5943556112e-4,0.0370851482875,-2.572700741e-4,-0.036703970403,-2.572700741e-4,-0.036703970403,2.5932247789e-4,0.0370655180793
275.0000000000000,2.6582809395e-4,0.0380157901650,-2.636361154e-4,-0.037627446112,-2.636361154e-4,-0.037627446112,2.6570931458e-4,0.0379956143567
280.0000000000000,2.7243317766e-4,0.0389634162951,-2.702145561e-4,-0.038567898861,-2.702145561e-4,-0.038567898861,2.7230843696e-4,0.0389426822369
285.0000000000000,2.7926181872e-4,0.0399287407453,-2.770164023e-4,-0.039526042440,-2.770164023e-4,-0.039526042440,2.7913085791e-4,0.0399074352516
290.0000000000000,2.8632574005e-4,0.0409125122585,-2.840533765e-4,-0.040502625296,-2.840533765e-4,-0.040502625296,2.8618830590e-4,0.0408906215798
295.0000000000000,2.9363743496e-4,0.0419155165227,-2.913379716e-4,-0.041498432809,-2.913379716e-4,-0.041498432809,2.9349327874e-4,0.0418930263167
300.0000000000000,3.0121022581e-4,0.0429385786171,-2.988835094e-4,-0.042514289735,-2.988835094e-4,-0.042514289735,3.0105910223e-4,0.0429154739180
305.0000000000000,3.0905832826e-4,0.0439825656524,-3.067042050e-4,-0.043551062842,-3.067042050e-4,-0.043551062842,3.0889999426e-4,0.0439588308377
310.0000000000000,3.1719692147e-4,0.0450483896210,-3.148152366e-4,-0.044609663766,-3.148152366e-4,-0.044609663766,3.1703113490e-4,0.0450240083768
315.0000000000000,3.2564222502e-4,0.0461370104796,-3.232328224e-4,-0.045691052084,-3.232328224e-4,-0.045691052084,3.2546874328e-4,0.0461119657632
320.0000000000000,3.3441158332e-4,0.0472494394845,-3.319743051e-4,-0.046796238655,-3.319743051e-4,-0.046796238655,3.3423016189e-4,0.0472237134848
325.0000000000000,3.4352355826e-4,0.0483867428062,-3.410582444e-4,-0.047926289231,-3.410582444e-4,-0.047926289231,3.4333394912e-4,0.0483603169010
330.0000000000000,3.5299803117e-4,0.0495500454493,-3.505045188e-4,-0.049082328373,-3.505045188e-4,-0.049082328373,3.5279998115e-4,0.0495229001601
335.0000000000000,3.6285631502e-4,0.0507405355094,-3.603344377e-4,-0.050265543711,-3.603344377e-4,-0.050265543711,3.6264956411e-4,0.0507126504526
340.0000000000000,3.7312127832e-4,0.0519594688016,-3.705708654e-4,-0.051477190567,-3.705708654e-4,-0.051477190567,3.7290555776e-4,0.0519308226365
345.0000000000000,3.8381748166e-4,0.0532081738977,-3.812383576e-4,-0.052718596991,-3.812383576e-4,-0.052718596991,3.8359251210e-4,0.0531787442707
350.0000000000000,3.9497132936e-4,0.0544880576171,-3.923633125e-4,-0.053991169251,-3.923633125e-4,-0.053991169251,3.9473681867e-4,0.0544578211017
355.0000000000000,4.0661123620e-4,0.0558006110178,-4.039741383e-4,-0.055296397821,-4.039741383e-4,-0.055296397821,4.0636687749e-4,0.0557695430497
360.0000000000000,4.1876781392e-4,0.0571474159428,-4.161014386e-4,-0.056635863925,-4.161014386e-4,-0.056635863925,4.1851328313e-4,0.0571154907508
365.0000000000000,4.3147407724e-4,0.0585301521830,-4.287782191e-4,-0.058011246698,-4.287782191e-4,-0.058011246698,4.3120903076e-4,0.0584973427135
370.0000000000000,4.4476567361e-4,0.0599506053248,-4.420401172e-4,-0.059424331028,-4.420401172e-4,-0.059424331028,4.4448974569e-4,0.0599168831614
375.0000000000000,4.5868113919e-4,0.0614106753606,-4.559256573e-4,-0.060877016167,-4.559256573e-4,-0.060877016167,4.5839393916e-4,0.0613760106363
380.0000000000000,4.7326218458e-4,0.0629123861510,-4.704765371e-4,-0.062371325186,-4.704765371e-4,-0.062371325186,4.7296329392e-4,0.0628767474535
385.0000000000000,4.8855401447e-4,0.0644578958366,-4.857379467e-4,-0.063909415387,-4.857379467e-4,-0.063909415387,4.8824298364e-4,0.0644212501058
390.0000000000000,5.0460568571e-4,0.0660495083153,-5.017589267e-4,-0.065493589771,-5.017589267e-4,-0.065493589771,5.0428203067e-4,0.0660118207320
395.0000000000000,5.2147050920e-4,0.0676896859123,-5.185927699e-4,-0.067126309707,-5.185927699e-4,-0.067126309707,5.2113370778e-4,0.0676509197769
400.0000000000000,5.3920650199e-4,0.0693810633918,-5.362974733e-4,-0.068810208936,-5.362974733e-4,-0.068810208936,5.3885598980e-4,0.0693411799928
405.0000000000000,5.5787689657e-4,0.0711264634778,-5.549362471e-4,-0.070548109088,-5.549362471e-4,-0.070548109088,5.5751206265e-4,0.0710854219482
410.0000000000000,5.7755071609e-4,0.0729289140785,-5.745780898e-4,-0.072343036898,-5.745780898e-4,-0.072343036898,5.7717089812e-4,0.0728866712389
415.0000000000000,5.9830342521e-4,0.0747916674357,-5.952984387e-4,-0.074198243348,-5.952984387e-4,-0.074198243348,5.9790790418e-4,0.0747481776231
420.0000000000000,6.2021766818e-4,0.0767182214553,-6.171799078e-4,-0.076117224993,-6.171799078e-4,-0.076117224993,6.1980566266e-4,0.0766734363356
425.0000000000000,6.4338410790e-4,0.0787123435151,-6.403131265e-4,-0.078103747755,-6.403131265e-4,-0.078103747755,6.4295476757e-4,0.0786662118770
430.0000000000000,6.6790238192e-4,0.0807780970915,-6.647976952e-4,-0.080161873541,-6.647976952e-4,-0.080161873541,6.6745478047e-4,0.0807305646204
435.0000000000000,6.9388219433e-4,0.0829198716018,-6.907432771e-4,-0.082295990074,-6.907432771e-4,-0.082295990074,6.9341532155e-4,0.0828708806308
440.0000000000000,7.2144456628e-4,0.0851424159274,-7.182708478e-4,-0.084510844406,-7.182708478e-4,-0.084510844406,7.2095731918e-4,0.0850919051629
445.0000000000000,7.5072327178e-4,0.0874508761551,-7.475141307e-4,-0.086811580640,-7.475141307e-4,-0.086811580640,7.5021444469e-4,0.0873987803728
450.0000000000000,7.8186649094e-4,0.0898508381717,-7.786212498e-4,-0.089203782514,-7.786212498e-4,-0.089203782514,7.8133476436e-4,0.0897970878811
455.0000000000000,8.1503871913e-4,0.0923483758552,-8.117566381e-4,-0.091693521566,-8.117566381e-4,-0.091693521566,8.1448264713e-4,0.0922928969265
460.0000000000000,8.5042297830e-4,0.0949501057397,-8.471032479e-4,-0.094287411788,-8.471032479e-4,-0.094287411788,8.4984097430e-4,0.0948928189892
465.0000000000000,8.8822338638e-4,0.0976632491923,-8.848651193e-4,-0.096992671770,-8.848651193e-4,-0.096992671770,8.8761370697e-4,0.0976040699200
470.0000000000000,9.2866815266e-4,0.1004957033340,-9.252703747e-4,-0.099817195599,-9.252703747e-4,-0.099817195599,9.2802887916e-4,0.1004345408072
475.0000000000000,9.7201308175e-4,0.1034561221744,-9.685747211e-4,-0.102769633961,-9.685747211e-4,-0.102769633961,9.7134209914e-4,0.1033928790494
480.0000000000000,0.0010185456874,0.1065540097186,-1.015065562e-3,-0.105859487214,-1.015065562e-3,-0.105859487214,0.0010178406601,0.1064885813907
485.0000000000000,0.0010685900403,0.1097998271581,-1.065066846e-3,-0.109097212533,-1.065066846e-3,-0.109097212533,0.0010678483845,0.1097321010303
490.0000000000000,0.0011225125040,0.1132051166977,-1.118944795e-3,-0.112494347697,-1.118944795e-3,-0.112494347697,0.0011217313552,0.1131349713540
495.0000000000000,0.0011807285495,0.1167826451083,-1.177114722e-3,-0.116063654581,-1.177114722e-3,-0.116063654581,0.0011799047252,0.1167099493778
500.0000000000000,0.0012437108867,0.1205465707729,-1.240049157e-3,-0.119819286140,-1.240049157e-3,-0.119819286140,0.0012428408431,0.1204711826659
505.0000000000000,0.0013119992123,0.1245126388372,-1.308287590e-3,-0.123776981486,-1.308287590e-3,-0.123776981486,0.0013110789931,0.1244344043320
510.0000000000000,0.0013862119521,0.1286984101384,-1.382448212e-3,-0.127954294727,-1.382448212e-3,-0.127954294727,0.0013852371289,0.1286171617934
515.0000000000000,0.0014670604778,0.1331235309384,-1.463242123e-3,-0.132370864598,-1.463242123e-3,-0.132370864598,0.0014660260790,0.1330390862973
520.0000000000000,0.0015553664135,0.1378100522026,-1.551490634e-3,-0.137048733621,-1.551490634e-3,-0.137048733621,0.0015542668409,0.1377222119563
525.0000000000000,0.0016520828231,0.1427828093784,-1.648146445e-3,-0.142012727732,-1.648146445e-3,-0.142012727732,0.0016509117519,0.1426913552356
530.0000000000000,0.0017583203080,0.1480698764824,-1.754319734e-3,-0.147290910200,-1.754319734e-3,-0.147290910200,0.0017570705670,0.1479745686934
535.0000000000000,0.0018753793590,0.1537031120280,-1.871310498e-3,-0.152915127343,-1.871310498e-3,-0.152915127343,0.0018740427859,0.1536036864916
540.0000000000000,0.0020047907360,0.1597188192204,-2.000648913e-3,-0.158921668471,-2.000648913e-3,-0.158921668471,0.0020033580028,0.1596149840846
545.0000000000000,0.0021483662386,0.1661585493239,-2.144146089e-3,-0.165352068945,-2.144146089e-3,-0.165352068945,0.0021468266374,0.1660499809735
550.0000000000000,0.0023082630381,0.1730700857817,-2.303958375e-3,-0.172254093925,-2.303958375e-3,-0.172254093925,0.0023066042184,0.1729564240728
555.0000000000000,0.0024870658759,0.1805086583740,-2.482669529e-3,-0.179682952059,-2.482669529e-3,-0.179682952059,0.0024852735193,0.1803895009401
560.0000000000000,0.0026878930363,0.1885384526809,-2.683396648e-3,-0.187702804368,-2.683396648e-3,-0.187702804368,0.0026859504504,0.1884133480849
565.0000000000000,0.0029145342885,0.1972345021692,-2.909928058e-3,-0.196388655616,-2.909928058e-3,-0.196388655616,0.0029124218957,0.1971029416083
570.0000000000000,0.0031716323201,0.2066850810257,-3.166904678e-3,-0.205828746219,-3.166904678e-3,-0.205828746219,0.0031693270080,0.2065464882067
575.0000000000000,0.0034649240681,0.2169947594501,-3.460061262e-3,-0.216127606377,-3.460061262e-3,-0.216127606377,0.0034623983566,0.2168484781283
580.0000000000000,0.0038015656839,0.2282883456644,-3.796551236e-3,-0.227409996572,-3.796551236e-3,-0.227409996572,0.0037987866433,0.2281336241682
585.0000000000000,0.0041905759252,0.2407160300955,-4.185389922e-3,-0.239826049786,-4.185389922e-3,-0.239826049786,0.0041875037583,0.2405520019171
590.0000000000000,0.0046434501046,0.2544601821567,-4.638068254e-3,-0.253558065680,-4.638068254e-3,-0.253558065680,0.0046400362587,0.2542858413452
595.0000000000000,0.0051750238094,0.2697444539318,-5.169416169e-3,-0.268829610798,-5.169416169e-3,-0.268829610798,0.0051712084308,0.2695586235258
600.0000000000000,0.0058047097458,0.2868461586214,-5.798838974e-3,-0.285917892283,-5.798838974e-3,-0.285917892283,0.0058004181911,0.2866474496144
605.0000000000000,0.0065583039586,0.3061133851471,-6.552122886e-3,-0.305170865930,-6.552122886e-3,-0.305170865930,0.0065534419275,0.3059001423668
610.0000000000000,0.0074706819680,0.3279891059974,-7.464130131e-3,-0.327031334817,-7.464130131e-3,-0.327031334817,0.0074651285803,0.3277593355491
615.0000000000000,0.0085899236297,0.3530458538020,-8.582922236e-3,-0.352071612617,-8.582922236e-3,-0.352071612617,0.0085835213543,0.3527971239955
620.0000000000000,0.0099838023408,0.3820367945426,-9.976246756e-3,-0.381044577279,-9.976246756e-3,-0.381044577279,0.0099763419738,0.3817660977631
625.0000000000000,0.0117503244041,0.4159730091810,-0.011742072617,-0.414960923097,-0.011742072617,-0.414960923097,0.0117415220029,0.4156765646633
630.0000000000000,0.0140354875559,0.4562441263322,-0.014026341865,-0.455209747257,-0.014026341865,-0.455209747257,0.0140249478183,0.4559170906868
635.0000000000000,0.0170645159394,0.5048135686083,-0.017054192714,-0.503753721508,-0.017054192714,-0.503753721508,0.0170516717383,0.5044495970423
640.0000000000000,0.0211996613732,0.5645483610141,-0.021187738745,-0.563458774434,-0.021187738745,-0.563458774434,0.0211836691590,0.5641389163450
645.0000000000000,0.0270539087656,0.6398055238619,-0.027039730896,-0.638680260115,-0.027039730896,-0.638680260115,0.0270334571403,0.6393387371115
650.0000000000000,0.0357320952896,0.7375420094521,-0.035714584548,-0.736372470331,-0.035714584548,-0.736372470331,0.0357050294299,0.7370006916556
655.0000000000000,0.0493929773423,0.8695867607903,-0.049370231770,-0.868359824371,-0.049370231770,-0.868359824371,0.0493554940871,0.8689446773136
660.0000000000000,0.0727316612858,1.0577861151290,-0.072699985694,-1.056480304781,-0.072699985694,-1.056480304781,0.0726763716977,1.0570003251483
665.0000000000000,0.1176092699408,1.3473505216652,-0.117560437936,-1.345927070685,-0.117560437936,-1.345927070685,0.1175197244055,1.3463435108623
670.0000000000000,0.2215881473738,1.8488394642965,-0.221499579629,-1.847217323283,-0.221499579629,-1.847217323283,0.2214191958951,1.8474491691577
675.0000000000000,0.5599628603297,2.9155374663996,-0.559744979265,-2.913500469170,-0.559744979265,-2.913500469170,0.5595353820113,2.9133316415594
680.0000000000000,3.0522653649638,6.2453142461363,-3.051094720181,-6.241996751957,-3.051094720181,-6.241996751957,3.0499327738490,6.2405619456010
685.0000000000000,6.9416397805734,-7.894502504182,-6.938980346516,7.8924201191988,-6.938980346516,7.8924201191988,6.9363302312419,-7.888443078372
690.0000000000000,0.8060065560339,-3.500262164011,-0.805693861543,3.4998664633295,-0.805693861543,3.4998664633295,0.8053896387420,-3.497561424784
695.0000000000000,0.2760308835622,-2.089392118786,-0.275920975109,2.0895428072831,-0.275920975109,2.0895428072831,0.2758195112701,-2.087769907277
700.0000000000000,0.1370740468436,-1.482659940673,-0.137017313878,1.4830495506820,-0.137017313878,1.4830495506820,0.1369690557301,-1.481501434618
705.0000000000000,0.0815463988842,-1.148422498629,-0.081510909699,1.1489468360766,-0.081510909699,1.1489468360766,0.0814839377902,-1.147519345195
710.0000000000000,0.0539666857210,-0.937303616896,-0.053941740270,0.9379156047921,-0.053941740270,0.9379156047921,0.0539253586884,-0.936561675543
715.0000000000000,0.0383139010808,-0.791983885498,-0.038294931705,0.7926583646583,-0.038294931705,0.7926583646583,0.0382845745777,-0.791352842885
720.0000000000000,0.0285901163705,-0.685884691415,-0.028574851767,0.6866066659415,-0.028574851767,0.6866066659415,0.0285682486992,-0.685334556853
725.0000000000000,0.0221416525382,-0.605024805889,-0.022128837613,0.6057846261608,-0.022128837613,0.6057846261608,0.0221247340296,-0.604536279167
730.0000000000000,0.0176483382507,-0.541355646455,-0.017637223571,0.5421467405733,-0.017637223571,0.5421467405733,0.0176348703658,-0.540915581592
735.0000000000000,0.0143935586725,-0.489919070360,-0.014383669348,0.4907367623942,-0.014383669348,0.4907367623942,0.0143825918535,-0.489518112558
740.0000000000000,0.0119611450427,-0.447495054282,-0.011952165658,0.4483358996339,-0.011952165658,0.4483358996339,0.0119520486179,-0.447126310900
745.0000000000000,0.0100960236322,-0.411901888587,-0.010087736535,0.4127632769428,-0.010087736535,0.4127632769428,0.0100883624208,-0.411560135201
750.0000000000000,0.0086348135916,-0.381609103947,-8.627063762e-3,0.3824890102493,-8.627063762e-3,0.3824890102493,0.0086282776566,-0.381290286390
755.0000000000000,0.0074689514455,-0.355511460765,-7.461625494e-3,0.3564082826065,-7.461625494e-3,0.3564082826065,0.0074633140905,-0.355212369974
760.0000000000000,0.0065240215809,-0.332790915242,-6.517034656e-3,0.3337033630420,-6.517034656e-3,0.3337033630420,0.0065191131797,-0.332508967653
765.0000000000000,0.0057476373991,-0.312829057160,-5.740924747e-3,0.3137560778262,-5.740924747e-3,0.3137560778262,0.0057433285105,-0.312562142063
770.0000000000000,0.0051020577077,-0.295149732297,-5.095569055e-3,0.2960904548248,-5.095569055e-3,0.2960904548248,0.0050982478476,-0.294896103055
