R 50.00000
Frequency (MHz),RE[Y11],IM[Y11],RE[Y12],IM[Y12],RE[Y21],IM[Y21],RE[Y22],IM[Y22]
100.0000000000000,1.7779860983e-4,0.0174817920464,-1.751471786e-4,-0.017214617138,-1.751471786e-4,-0.017214617138,1.7789537735e-4,0.0174912968083
102.0000000000000,1.7971097616e-4,0.0178570300187,-1.770463614e-4,-0.017584503137,-1.770463614e-4,-0.017584503137,1.7980944997e-4,0.0178667389070
104.0000000000000,1.8163175192e-4,0.0182338724701,-1.789517192e-4,-0.017955996535,-1.789517192e-4,-0.017955996535,1.8173182425e-4,0.0182437860147
106.0000000000000,1.8356246763e-4,0.0186123601484,-1.808652585e-4,-0.018329137747,-1.808652585e-4,-0.018329137747,1.8366403267e-4,0.0186224789401
108.0000000000000,1.8550462846e-4,0.0189925342725,-1.827888818e-4,-0.018703967681,-1.827888818e-4,-0.018703967681,1.8560758430e-4,0.0190028589591
110.0000000000000,1.8745971024e-4,0.0193744365584,-1.847243949e-4,-0.019080527766,-1.847243949e-4,-0.019080527766,1.8756396048e-4,0.0193849678415
112.0000000000000,1.8942915662e-4,0.0197581092463,-1.866735132e-4,-0.019458859979,-1.866735132e-4,-0.019458859979,1.8953461154e-4,0.0197688478781
114.0000000000000,1.9141437702e-4,0.0201435951262,-1.886378686e-4,-0.019839006872,-1.886378686e-4,-0.019839006872,1.9152095446e-4,0.0201545419063
116.0000000000000,1.9341674535e-4,0.0205309375645,-1.906190153e-4,-0.020221011598,-1.906190153e-4,-0.020221011598,1.9352437134e-4,0.0205420933377
118.0000000000000,1.9543759934e-4,0.0209201805300,-1.926184353e-4,-0.020604917933,-1.926184353e-4,-0.020604917933,1.9554620851e-4,0.0209315461836
120.0000000000000,1.9747824045e-4,0.0213113686205,-1.946375444e-4,-0.020990770304,-1.946375444e-4,-0.020990770304,1.9758777621e-4,0.0213229450823
122.0000000000000,1.9953993422e-4,0.0217045470886,-1.966776967e-4,-0.021378613814,-1.966776967e-4,-0.021378613814,1.9965034881e-4,0.0217163353247
124.0000000000000,2.0162391095e-4,0.0220997618683,-1.987401900e-4,-0.021768494265,-1.987401900e-4,-0.021768494265,2.0173516539e-4,0.0221117628816
126.0000000000000,2.0373136675e-4,0.0224970596015,-2.008262699e-4,-0.022160458187,-2.008262699e-4,-0.022160458187,2.0384343065e-4,0.0225092744302
128.0000000000000,2.0586346489e-4,0.0228964876645,-2.029371347e-4,-0.022554552857,-2.029371347e-4,-0.022554552857,2.0597631615e-4,0.0229089173807
130.0000000000000,2.0802133730e-4,0.0232980941954,-2.050739392e-4,-0.022950826331,-2.050739392e-4,-0.022950826331,2.0813496181e-4,0.0233107399039
132.0000000000000,2.1020608625e-4,0.0237019281206,-2.072377988e-4,-0.023349327467,-2.072377988e-4,-0.023349327467,2.1032047750e-4,0.0237147909582
134.0000000000000,2.1241878629e-4,0.0241080391832,-2.094297934e-4,-0.023750105952,-2.094297934e-4,-0.023750105952,2.1253394496e-4,0.0241211203176
136.0000000000000,2.1466048621e-4,0.0245164779705,-2.116509708e-4,-0.024153212328,-2.116509708e-4,-0.024153212328,2.1477641963e-4,0.0245297785995
138.0000000000000,2.1693221105e-4,0.0249272959421,-2.139023501e-4,-0.024558698020,-2.139023501e-4,-0.024558698020,2.1704893288e-4,0.0249408172936
140.0000000000000,2.1923496438e-4,0.0253405454596,-2.161849256e-4,-0.024966615363,-2.161849256e-4,-0.024966615363,2.1935249401e-4,0.0253542887907
142.0000000000000,2.2156973044e-4,0.0257562798153,-2.184996693e-4,-0.025377017632,-2.184996693e-4,-0.025377017632,2.2168809255e-4,0.0257702464123
144.0000000000000,2.2393747641e-4,0.0261745532625,-2.208475343e-4,-0.025789959069,-2.208475343e-4,-0.025789959069,2.2405670051e-4,0.0261887444406
146.0000000000000,2.2633915476e-4,0.0265954210460,-2.232294580e-4,-0.026205494917,-2.232294580e-4,-0.026205494917,2.2645927467e-4,0.0266098381494
148.0000000000000,2.2877570549e-4,0.0270189394338,-2.256463643e-4,-0.026623681444,-2.256463643e-4,-0.026623681444,2.2889675893e-4,0.0270335838353
150.0000000000000,2.3124805852e-4,0.0274451657486,-2.280991673e-4,-0.027044575979,-2.280991673e-4,-0.027044575979,2.3137008663e-4,0.0274600388501
152.0000000000000,2.3375713602e-4,0.0278741584009,-2.305887731e-4,-0.027468236945,-2.305887731e-4,-0.027468236945,2.3388018295e-4,0.0278892616337
154.0000000000000,2.3630385471e-4,0.0283059769229,-2.331160833e-4,-0.027894723889,-2.331160833e-4,-0.027894723889,2.3642796721e-4,0.0283213117474
156.0000000000000,2.3888912824e-4,0.0287406820026,-2.356819966e-4,-0.028324097515,-2.356819966e-4,-0.028324097515,2.3901435525e-4,0.0287562499093
158.0000000000000,2.4151386950e-4,0.0291783355195,-2.382874123e-4,-0.028756419726,-2.382874123e-4,-0.028756419726,2.4164026178e-4,0.0291941380290
160.0000000000000,2.4417899291e-4,0.0296190005814,-2.409332319e-4,-0.029191753650,-2.409332319e-4,-0.029191753650,2.4430660274e-4,0.0296350392449
162.0000000000000,2.4688541676e-4,0.0300627415612,-2.436203619e-4,-0.029630163688,-2.436203619e-4,-0.029630163688,2.4701429757e-4,0.0300790179613
164.0000000000000,2.4963406550e-4,0.0305096241363,-2.463497163e-4,-0.030071715542,-2.463497163e-4,-0.030071715542,2.4976427156e-4,0.0305261398871
166.0000000000000,2.5242587197e-4,0.0309597153279,-2.491222185e-4,-0.030516476263,-2.491222185e-4,-0.030516476263,2.5255745817e-4,0.0309764720760
168.0000000000000,2.5526177972e-4,0.0314130835421,-2.519388038e-4,-0.030964514285,-2.519388038e-4,-0.030964514285,2.5539480125e-4,0.0314300829674
170.0000000000000,2.5814274522e-4,0.0318697986124,-2.548004215e-4,-0.031415899473,-2.548004215e-4,-0.031415899473,2.5827725738e-4,0.0318870424283
172.0000000000000,2.6106974011e-4,0.0323299318431,-2.577080374e-4,-0.031870703160,-2.577080374e-4,-0.031870703160,2.6120579808e-4,0.0323474217977
174.0000000000000,2.6404375342e-4,0.0327935560545,-2.606626355e-4,-0.032328998200,-2.606626355e-4,-0.032328998200,2.6418141207e-4,0.0328112939313
176.0000000000000,2.6706579380e-4,0.0332607456292,-2.636652209e-4,-0.032790859005,-2.636652209e-4,-0.032790859005,2.6720510751e-4,0.0332787332480
178.0000000000000,2.7013689168e-4,0.0337315765605,-2.667168210e-4,-0.033256361602,-2.667168210e-4,-0.033256361602,2.7027791423e-4,0.0337498157781
180.0000000000000,2.7325810153e-4,0.0342061265020,-2.698184884e-4,-0.033725583675,-2.698184884e-4,-0.033725583675,2.7340088591e-4,0.0342246192131
182.0000000000000,2.7643050403e-4,0.0346844748185,-2.729713028e-4,-0.034198604621,-2.729713028e-4,-0.034198604621,2.7657510237e-4,0.0347032229570
184.0000000000000,2.7965520823e-4,0.0351667026398,-2.761763729e-4,-0.034675505603,-2.761763729e-4,-0.034675505603,2.7980167171e-4,0.0351857081796
186.0000000000000,2.8293335383e-4,0.0356528929156,-2.794348391e-4,-0.035156369600,-2.794348391e-4,-0.035156369600,2.8308173256e-4,0.0356721578714
188.0000000000000,2.8626611331e-4,0.0361431304721,-2.827478749e-4,-0.035641281472,-2.827478749e-4,-0.035641281472,2.8641645631e-4,0.0361626569007
190.0000000000000,2.8965469418e-4,0.0366375020712,-2.861166897e-4,-0.036130328011,-2.861166897e-4,-0.036130328011,2.8980704932e-4,0.0366572920727
192.0000000000000,2.9310034120e-4,0.0371360964716,-2.895425304e-4,-0.036623598008,-2.895425304e-4,-0.036623598008,2.9325475515e-4,0.0371561521903
194.0000000000000,2.9660433862e-4,0.0376390044922,-2.930266842e-4,-0.037121182311,-2.930266842e-4,-0.037121182311,2.9676085687e-4,0.0376593281178
196.0000000000000,3.0016801247e-4,0.0381463190776,-2.965704802e-4,-0.037623173897,-2.965704802e-4,-0.037623173897,3.0032667927e-4,0.0381669128465
198.0000000000000,3.0379273281e-4,0.0386581353662,-3.001752922e-4,-0.038129667935,-3.001752922e-4,-0.038129667935,3.0395359123e-4,0.0386790015627
200.0000000000000,3.0747991607e-4,0.0391745507609,-3.038425403e-4,-0.038640761857,-3.038425403e-4,-0.038640761857,3.0764300798e-4,0.0391956917183
202.0000000000000,3.1123102741e-4,0.0396956650022,-3.075736938e-4,-0.039156555435,-3.075736938e-4,-0.039156555435,3.1139639353e-4,0.0397170831045
204.0000000000000,3.1504758313e-4,0.0402215802447,-3.113702734e-4,-0.039677150853,-3.113702734e-4,-0.039677150853,3.1521526306e-4,0.0402432779272
206.0000000000000,3.1893115308e-4,0.0407524011352,-3.152338534e-4,-0.040202652788,-3.152338534e-4,-0.040202652788,3.1910118533e-4,0.0407743808868
208.0000000000000,3.2288336316e-4,0.0412882348955,-3.191660642e-4,-0.040733168492,-3.191660642e-4,-0.040733168492,3.2305578524e-4,0.0413104992596
210.0000000000000,3.2690589788e-4,0.0418291914074,-3.231685951e-4,-0.041268807877,-3.231685951e-4,-0.041268807877,3.2708074635e-4,0.0418517429832
212.0000000000000,3.3100050311e-4,0.0423753833006,-3.272431965e-4,-0.041809683602,-3.272431965e-4,-0.041809683602,3.3117781367e-4,0.0423982247451
214.0000000000000,3.3516898810e-4,0.0429269260463,-3.313916824e-4,-0.042355911167,-3.313916824e-4,-0.042355911167,3.3534879553e-4,0.0429500600752
216.0000000000000,3.3941322952e-4,0.0434839380503,-3.356159343e-4,-0.042907609011,-3.356159343e-4,-0.042907609011,3.3959556799e-4,0.0435073674403
218.0000000000000,3.4373517302e-4,0.0440465407548,-3.399179022e-4,-0.043464898604,-3.399179022e-4,-0.043464898604,3.4392007604e-4,0.0440702683447
220.0000000000000,3.4813683682e-4,0.0446148587408,-3.442996090e-4,-0.044027904558,-3.442996090e-4,-0.044027904558,3.4832433736e-4,0.0446388874336
222.0000000000000,3.5262031459e-4,0.0451890198362,-3.487631529e-4,-0.044596754733,-3.487631529e-4,-0.044596754733,3.5281044518e-4,0.0452133526004
224.0000000000000,3.5718777860e-4,0.0457691552274,-3.533107103e-4,-0.045171580345,-3.533107103e-4,-0.045171580345,3.5738057143e-4,0.0457937950991
226.0000000000000,3.6184148295e-4,0.0463553995766,-3.579445396e-4,-0.045752516088,-3.579445396e-4,-0.045752516088,3.6203696999e-4,0.0463803496611
228.0000000000000,3.6658376696e-4,0.0469478911427,-3.626669842e-4,-0.046339700254,-3.626669842e-4,-0.046339700254,3.6678198009e-4,0.0469731546167
230.0000000000000,3.7141705869e-4,0.0475467719085,-3.674804759e-4,-0.046933274858,-3.674804759e-4,-0.046933274858,3.7161802976e-4,0.0475723520219
232.0000000000000,3.7634387856e-4,0.0481521877125,-3.723875390e-4,-0.047533385771,-3.723875390e-4,-0.047533385771,3.7654763957e-4,0.0481780877904
234.0000000000000,3.8136684317e-4,0.0487642883861,-3.773907935e-4,-0.048140182858,-3.773907935e-4,-0.048140182858,3.8157342635e-4,0.0487905118310
236.0000000000000,3.8648866927e-4,0.0493832278977,-3.824929595e-4,-0.048753820123,-3.824929595e-4,-0.048753820123,3.8669810723e-4,0.0494097781915
238.0000000000000,3.9171217792e-4,0.0500091645014,-3.876968612e-4,-0.049374455855,-3.876968612e-4,-0.049374455855,3.9192450375e-4,0.0500360452079
240.0000000000000,3.9704029877e-4,0.0506422608941,-3.930054313e-4,-0.050002252787,-3.930054313e-4,-0.050002252787,3.9725554622e-4,0.0506694756609
242.0000000000000,4.0247607467e-4,0.0512826843774,-3.984217153e-4,-0.050637378258,-3.984217153e-4,-0.050637378258,4.0269427822e-4,0.0513102369388
244.0000000000000,4.0802266636e-4,0.0519306070283,-4.039488766e-4,-0.051280004382,-4.039488766e-4,-0.051280004382,4.0824386141e-4,0.0519585012075
246.0000000000000,4.1368335750e-4,0.0525862058766,-4.095902012e-4,-0.051930308229,-4.095902012e-4,-0.051930308229,4.1390758046e-4,0.0526144455881
248.0000000000000,4.1946155986e-4,0.0532496630903,-4.153491031e-4,-0.052588472008,-4.153491031e-4,-0.052588472008,4.1968884831e-4,0.0532782523430
250.0000000000000,4.2536081882e-4,0.0539211661696,-4.212291296e-4,-0.053254683258,-4.212291296e-4,-0.053254683258,4.2559121166e-4,0.0539501090691
252.0000000000000,4.3138481916e-4,0.0546009081493,-4.272339675e-4,-0.053929135059,-4.272339675e-4,-0.053929135059,4.3161835673e-4,0.0546302089011
254.0000000000000,4.3753739111e-4,0.0552890878110,-4.333674484e-4,-0.054612026236,-4.333674484e-4,-0.054612026236,4.3777411535e-4,0.0553187507232
256.0000000000000,4.4382251673e-4,0.0559859099044,-4.396335561e-4,-0.055303561584,-4.396335561e-4,-0.055303561584,4.4406247132e-4,0.0560159393910
258.0000000000000,4.5024433667e-4,0.0566915853794,-4.460364324e-4,-0.056003952100,-4.460364324e-4,-0.056003952100,4.5048756717e-4,0.0567219859635
260.0000000000000,4.5680715722e-4,0.0574063316289,-4.525803848e-4,-0.056713415226,-4.525803848e-4,-0.056713415226,4.5705371124e-4,0.0574371079456
262.0000000000000,4.6351545780e-4,0.0581303727425,-4.592698938e-4,-0.057432175101,-4.592698938e-4,-0.057432175101,4.6376538513e-4,0.0581615295430
264.0000000000000,4.7037389887e-4,0.0588639397734,-4.661096207e-4,-0.058160462831,-4.661096207e-4,-0.058160462831,4.7062725164e-4,0.0588954819279
266.0000000000000,4.7738733021e-4,0.0596072710167,-4.731044160e-4,-0.058898516765,-4.731044160e-4,-0.058898516765,4.7764416307e-4,0.0596392035187
268.0000000000000,4.8456079978e-4,0.0603606123022,-4.802593284e-4,-0.059646582788,-4.802593284e-4,-0.059646582788,4.8482117001e-4,0.0603929402720
270.0000000000000,4.9189956293e-4,0.0611242173011,-4.875796138e-4,-0.060404914629,-4.875796138e-4,-0.060404914629,4.9216353065e-4,0.0611569459899
272.0000000000000,4.9940909233e-4,0.0618983478472,-4.950707452e-4,-0.061173774183,-4.950707452e-4,-0.061173774183,4.9967672065e-4,0.0619314826413
274.0000000000000,5.0709508829e-4,0.0626832742747,-5.027384234e-4,-0.061953431845,-5.027384234e-4,-0.061953431845,5.0736644346e-4,0.0627168207000
276.0000000000000,5.1496348980e-4,0.0634792757727,-5.105885875e-4,-0.062744166870,-5.105885875e-4,-0.062744166870,5.1523864140e-4,0.0635132394990
278.0000000000000,5.2302048620e-4,0.0642866407570,-5.186274273e-4,-0.063546267739,-5.186274273e-4,-0.063546267739,5.2329950733e-4,0.0643210276029
280.0000000000000,5.3127252952e-4,0.0651056672613,-5.268613949e-4,-0.064360032556,-5.268613949e-4,-0.064360032556,5.3155549695e-4,0.0651404831991
282.0000000000000,5.3972634759e-4,0.0659366633483,-5.352972183e-4,-0.065185769456,-5.352972183e-4,-0.065185769456,5.4001334195e-4,0.0659719145090
284.0000000000000,5.4838895793e-4,0.0667799475416,-5.439419150e-4,-0.066023797037,-5.439419150e-4,-0.066023797037,5.4868006393e-4,0.0668156402205
286.0000000000000,5.5726768248e-4,0.0676358492803,-5.528028073e-4,-0.066874444816,-5.528028073e-4,-0.066874444816,5.5756298908e-4,0.0676719899424
288.0000000000000,5.6637016331e-4,0.0685047093977,-5.618875373e-4,-0.067738053707,-5.618875373e-4,-0.067738053707,5.6666976391e-4,0.0685413046838
290.0000000000000,5.7570437992e-4,0.0693868806236,-5.712040845e-4,-0.068614976524,-5.712040845e-4,-0.068614976524,5.7600837265e-4,0.0694239373561
292.0000000000000,5.8527866332e-4,0.0702827281215,-5.807607802e-4,-0.069505578517,-5.807607802e-4,-0.069505578517,5.8558715104e-4,0.0703202533106
294.0000000000000,5.9510172210e-4,0.0711926300346,-5.905663331e-4,-0.070410237920,-5.905663331e-4,-0.070410237920,5.9541481292e-4,0.0712306308857
296.0000000000000,6.0518265516e-4,0.0721169780887,-6.006298424e-4,-0.071329346553,-6.006298424e-4,-0.071329346553,6.0550046248e-4,0.0721554620087
298.0000000000000,6.1553097667e-4,0.0730561782073,-6.109608225e-4,-0.072263310438,-6.109608225e-4,-0.072263310438,6.1585361945e-4,0.0730951528122
300.0000000000000,6.2615663797e-4,0.0740106511694,-6.215692253e-4,-0.073212550455,-6.215692253e-4,-0.073212550455,6.2648424101e-4,0.0740501242917
302.0000000000000,6.3707005184e-4,0.0749808333025,-6.324654639e-4,-0.074177503038,-6.324654639e-4,-0.074177503038,6.3740274602e-4,0.0750208129995
304.0000000000000,6.4828211820e-4,0.0759671772146,-6.436604388e-4,-0.075158620906,-6.436604388e-4,-0.075158620906,6.4862004077e-4,0.0760076717764
306.0000000000000,6.5980425171e-4,0.0769701525678,-6.551655655e-4,-0.076156373834,-6.551655655e-4,-0.076156373834,6.6014754654e-4,0.0770111705263
308.0000000000000,6.7164841104e-4,0.0779902468965,-6.669928035e-4,-0.077171249477,-6.669928035e-4,-0.077171249477,6.7199722897e-4,0.0780317970344
310.0000000000000,6.8382713036e-4,0.0790279664730,-6.791546878e-4,-0.078203754232,-6.791546878e-4,-0.078203754232,6.8418162946e-4,0.0790700578336
312.0000000000000,6.9635355281e-4,0.0800838372239,-6.916643628e-4,-0.079254414154,-6.916643628e-4,-0.079254414154,6.9671389874e-4,0.0801264791211
314.0000000000000,7.0924146638e-4,0.0811584057005,-7.045356179e-4,-0.080323775930,-7.045356179e-4,-0.080323775930,7.0960783274e-4,0.0812016077293
316.0000000000000,7.2250534234e-4,0.0822522401073,-7.177829258e-4,-0.081412407906,-7.177829258e-4,-0.081412407906,7.2287791101e-4,0.0822960121552
318.0000000000000,7.3616037631e-4,0.0833659313925,-7.314214838e-4,-0.082520901175,-7.314214838e-4,-0.082520901175,7.3653933785e-4,0.0834102836509
320.0000000000000,7.5022253237e-4,0.0845000944052,-7.454672581e-4,-0.083649870740,-7.454672581e-4,-0.083649870740,7.5060808641e-4,0.0845450373819
322.0000000000000,7.6470859025e-4,0.0856553691235,-7.599370305e-4,-0.084799956738,-7.599370305e-4,-0.084799956738,7.6510094594e-4,0.0857009136555
324.0000000000000,7.7963619608e-4,0.0868324219593,-7.748484497e-4,-0.085971825748,-7.748484497e-4,-0.085971825748,7.8003557254e-4,0.0868785792263
326.0000000000000,7.9502391683e-4,0.0880319471451,-7.902200853e-4,-0.087166172175,-7.902200853e-4,-0.087166172175,7.9543054359e-4,0.0880787286840
328.0000000000000,8.1089129877e-4,0.0892546682086,-8.060714868e-4,-0.088383719729,-8.060714868e-4,-0.088383719729,8.1130541634e-4,0.0893020859285
330.0000000000000,8.2725893045e-4,0.0905013395426,-8.224232459e-4,-0.089625222992,-8.224232459e-4,-0.089625222992,8.2768079080e-4,0.0905494057407
332.0000000000000,8.4414851036e-4,0.0917727480762,-8.392970649e-4,-0.090891469090,-8.392970649e-4,-0.090891469090,8.4457837753e-4,0.0918214754544
334.0000000000000,8.6158291985e-4,0.0930697150563,-8.567158292e-4,-0.092183279476,-8.567158292e-4,-0.092183279476,8.6202107056e-4,0.0931191167389
336.0000000000000,8.7958630177e-4,0.0943930979465,-8.747036860e-4,-0.093501511832,-8.747036860e-4,-0.093501511832,8.8003302605e-4,0.0944431874990
338.0000000000000,8.9818414522e-4,0.0957437924542,-8.932861294e-4,-0.094847062089,-8.932861294e-4,-0.094847062089,8.9863974712e-4,0.0957945839029
340.0000000000000,9.1740337711e-4,0.0971227346949,-9.124900916e-4,-0.096220866600,-9.124900916e-4,-0.096220866600,9.1786817543e-4,0.0971742425475
342.0000000000000,9.3727246102e-4,0.0985309035050,-9.323440418e-4,-0.097623904448,-9.323440418e-4,-0.097623904448,9.3774679009e-4,0.0985831427729
344.0000000000000,9.5782150421e-4,0.0999693229153,-9.528780935e-4,-0.099057199925,-9.528780935e-4,-0.099057199925,9.5830571476e-4,0.1000223091366
346.0000000000000,9.7908237334e-4,0.1014390647980,-9.741241203e-4,-0.100521825173,-9.741241203e-4,-0.100521825173,9.7957683338e-4,0.1014928140622
348.0000000000000,0.0010010888199,0.1029412517022,-9.961158809e-4,-0.102018903026,-9.961158809e-4,-0.102018903026,0.0010015939157,0.1029957806766
350.0000000000000,0.0010238766163,0.1044770598933,-1.018889156e-3,-0.103549610049,-1.018889156e-3,-0.103549610049,0.0010243927534,0.1045323858500
352.0000000000000,0.0010474837031,0.1060477226130,-1.042481894e-3,-0.105115179796,-1.042481894e-3,-0.105115179796,0.0010480113075,0.1061038634589
354.0000000000000,0.0010719503501,0.1076545335807,-1.066934374e-3,-0.106716906316,-1.066934374e-3,-0.106716906316,0.0010724898692,0.1077115078881
356.0000000000000,0.0010973193298,0.1092988507548,-1.092289379e-3,-0.108356147912,-1.092289379e-3,-0.108356147912,0.0010978712342,0.1093566777950
358.0000000000000,0.0011236361080,0.1109821003794,-1.118592385e-3,-0.110034331193,-1.118592385e-3,-0.110034331193,0.0011242008924,0.1110408001575
360.0000000000000,0.0011509490504,0.1127057813398,-1.145891769e-3,-0.111752955425,-1.145891769e-3,-0.111752955425,0.0011515272351,0.1127653746322
362.0000000000000,0.0011793096481,0.1144714698560,-1.174239036e-3,-0.113513597230,-1.174239036e-3,-0.113513597230,0.0011799017809,0.1145319782503
364.0000000000000,0.0012087727643,0.1162808245443,-1.203689061e-3,-0.115317915648,-1.203689061e-3,-0.115317915648,0.0012093794220,0.1163422704816
366.0000000000000,0.0012393969036,0.1181355918818,-1.234300364e-3,-0.117167657602,-1.234300364e-3,-0.117167657602,0.0012400186941,0.1181979987021
368.0000000000000,0.0012712445071,0.1200376121117,-1.266135401e-3,-0.119064663804,-1.266135401e-3,-0.119064663804,0.0012718820712,0.1201010041020
