R 50.00000
Frequency (MHz),RE[Y11],IM[Y11],RE[Y12],IM[Y12],RE[Y21],IM[Y21],RE[Y22],IM[Y22]
100.0000000000000,1.0135845218e-4,0.0101648112383,-1.001408695e-4,-0.010034786753,-1.001408695e-4,-0.010034786753,1.0129605589e-4,0.0101583823257
105.0000000000000,1.0359128570e-4,0.0106901548751,-1.023533459e-4,-0.010553617851,-1.023533459e-4,-0.010553617851,1.0352797717e-4,0.0106833860157
110.0000000000000,1.0585514054e-4,0.0112180824544,-1.045955567e-4,-0.011075031899,-1.045955567e-4,-0.011075031899,1.0579050525e-4,0.0112109723241
115.0000000000000,1.0815164884e-4,0.0117487313958,-1.068694972e-4,-0.011599166259,-1.068694972e-4,-0.011599166259,1.0808542545e-4,0.0117412783751
120.0000000000000,1.1048234153e-4,0.0122822416862,-1.091769832e-4,-0.012126160814,-1.091769832e-4,-0.012126160814,1.1041438159e-4,0.0122744438695
125.0000000000000,1.1284868733e-4,0.0128187560158,-1.115197026e-4,-0.012656158126,-1.115197026e-4,-0.012656158126,1.1277892289e-4,0.0128106112237
130.0000000000000,1.1525212335e-4,0.0133584199164,-1.138992578e-4,-0.013189303582,-1.138992578e-4,-0.013189303582,1.1518054138e-4,0.0133499257087
135.0000000000000,1.1769407900e-4,0.0139013819032,-1.163171999e-4,-0.013725745552,-1.163171999e-4,-0.013725745552,1.1762070144e-4,0.0138925355920
140.0000000000000,1.2017599466e-4,0.0144477936228,-1.187750564e-4,-0.014265635532,-1.187750564e-4,-0.014265635532,1.2010086311e-4,0.0144385922847
145.0000000000000,1.2269933627e-4,0.0149978100071,-1.212743534e-4,-0.014809128312,-1.212743534e-4,-0.014809128312,1.2262250055e-4,0.0149882504948
150.0000000000000,1.2526560694e-4,0.0155515894349,-1.238166331e-4,-0.015356382129,-1.238166331e-4,-0.015356382129,1.2518711662e-4,0.0155416683870
155.0000000000000,1.2787635619e-4,0.0161092939014,-1.264034683e-4,-0.015907558845,-1.264034683e-4,-0.015907558845,1.2779625459e-4,0.0160990077509
160.0000000000000,1.3053318777e-4,0.0166710891957,-1.290364741e-4,-0.016462824122,-1.290364741e-4,-0.016462824122,1.3045150779e-4,0.0166604341772
165.0000000000000,1.3323776608e-4,0.0172371450876,-1.317173177e-4,-0.017022347605,-1.317173177e-4,-0.017022347605,1.3315452757e-4,0.0172261172428
170.0000000000000,1.3599182193e-4,0.0178076355231,-1.344477262e-4,-0.017586303123,-1.344477262e-4,-0.017586303123,1.3590703014e-4,0.0177962307051
175.0000000000000,1.3879715777e-4,0.0183827388301,-1.372294942e-4,-0.018154868889,-1.372294942e-4,-0.018154868889,1.3871080266e-4,0.0183709527061
180.0000000000000,1.4165565256e-4,0.0189626379335,-1.400644898e-4,-0.018728227716,-1.400644898e-4,-0.018728227716,1.4156770879e-4,0.0189504659870
185.0000000000000,1.4456926652e-4,0.0195475205813,-1.429546610e-4,-0.019306567243,-1.429546610e-4,-0.019306567243,1.4447969387e-4,0.0195349581124
190.0000000000000,1.4754004587e-4,0.0201375795824,-1.459020407e-4,-0.019890080172,-1.459020407e-4,-0.019890080172,1.4744878998e-4,0.0201246217074
195.0000000000000,1.5057012760e-4,0.0207330130548,-1.489087523e-4,-0.020478964514,-1.489087523e-4,-0.020478964514,1.5047712094e-4,0.0207196547052
200.0000000000000,1.5366174436e-4,0.0213340246879,-1.519770152e-4,-0.021073423851,-1.519770152e-4,-0.021073423851,1.5356690736e-4,0.0213202606078
205.0000000000000,1.5681722962e-4,0.0219408240165,-1.551091502e-4,-0.021673667611,-1.551091502e-4,-0.021673667611,1.5672047187e-4,0.0219266487597
210.0000000000000,1.6003902300e-4,0.0225536267098,-1.583075850e-4,-0.022279911355,-1.583075850e-4,-0.022279911355,1.5994024441e-4,0.0225390346361
215.0000000000000,1.6332967591e-4,0.0231726548745,-1.615748600e-4,-0.022892377080,-1.615748600e-4,-0.022892377080,1.6322876796e-4,0.0231576401451
220.0000000000000,1.6669185750e-4,0.0237981373741,-1.649136342e-4,-0.023511293536,-1.649136342e-4,-0.023511293536,1.6658870440e-4,0.0237826939468
225.0000000000000,1.7012836099e-4,0.0244303101646,-1.683266917e-4,-0.024136896566,-1.683266917e-4,-0.024136896566,1.7002284075e-4,0.0244144317876
230.0000000000000,1.7364211036e-4,0.0250694166482,-1.718169486e-4,-0.024769429454,-1.718169486e-4,-0.024769429454,1.7353409587e-4,0.0250530968540
235.0000000000000,1.7723616746e-4,0.0257157080454,-1.753874594e-4,-0.025409143299,-1.753874594e-4,-0.025409143299,1.7712552739e-4,0.0256989401440
240.0000000000000,1.8091373958e-4,0.0263694437883,-1.790414254e-4,-0.026056297409,-1.790414254e-4,-0.026056297409,1.8080033927e-4,0.0263522208595
245.0000000000000,1.8467818748e-4,0.0270308919346,-1.827822019e-4,-0.026711159712,-1.827822019e-4,-0.026711159712,1.8456188971e-4,0.0270132068200
250.0000000000000,1.8853303403e-4,0.0277003296047,-1.866133072e-4,-0.027374007197,-1.866133072e-4,-0.027374007197,1.8841369967e-4,0.0276821748991
255.0000000000000,1.9248197325e-4,0.0283780434433,-1.905384316e-4,-0.028045126369,-1.905384316e-4,-0.028045126369,1.9235946187e-4,0.0283594114858
260.0000000000000,1.9652888018e-4,0.0290643301080,-1.945614469e-4,-0.028724813745,-1.945614469e-4,-0.028724813745,1.9640305051e-4,0.0290452129718
265.0000000000000,2.0067782119e-4,0.0297594967844,-1.986864168e-4,-0.029413376360,-1.986864168e-4,-0.029413376360,2.0054853153e-4,0.0297398862673
270.0000000000000,2.0493306514e-4,0.0304638617331,-2.029176081e-4,-0.030111132323,-2.029176081e-4,-0.030111132323,2.0480017367e-4,0.0304437493458
275.0000000000000,2.0929909527e-4,0.0311777548668,-2.072595022e-4,-0.030818411387,-2.072595022e-4,-0.030818411387,2.0916246027e-4,0.0311571318223
280.0000000000000,2.1378062188e-4,0.0319015183637,-2.117168081e-4,-0.031535555563,-2.117168081e-4,-0.031535555563,2.1364010188e-4,0.0318803755648
285.0000000000000,2.1838259599e-4,0.0326355073164,-2.162944758e-4,-0.032262919773,-2.162944758e-4,-0.032262919773,2.1823804982e-4,0.0326138353429
290.0000000000000,2.2311022386e-4,0.0333800904208,-2.209977106e-4,-0.033000872533,-2.209977106e-4,-0.033000872533,2.2296151066e-4,0.0333578795168
295.0000000000000,2.2796898269e-4,0.0341356507081,-2.258319891e-4,-0.033749796687,-2.258319891e-4,-0.033749796687,2.2781596179e-4,0.0341128907672
300.0000000000000,2.3296463736e-4,0.0349025863213,-2.308030755e-4,-0.034510090186,-2.308030755e-4,-0.034510090186,2.3280716818e-4,0.0348792668724
305.0000000000000,2.3810325846e-4,0.0356813113415,-2.359170399e-4,-0.035282166908,-2.359170399e-4,-0.035282166908,2.3794120027e-4,0.0356574215330
310.0000000000000,2.4339124172e-4,0.0364722566667,-2.411802775e-4,-0.036066457541,-2.411802775e-4,-0.036066457541,2.4322445334e-4,0.0364477852501
315.0000000000000,2.4883532880e-4,0.0372758709477,-2.465995293e-4,-0.036863410517,-2.465995293e-4,-0.036863410517,2.4866366829e-4,0.0372508062604
320.0000000000000,2.5444262985e-4,0.0380926215843,-2.521819049e-4,-0.037673493007,-2.521819049e-4,-0.037673493007,2.5426595407e-4,0.0380669515315
325.0000000000000,2.6022064743e-4,0.0389229957884,-2.579349060e-4,-0.038497191985,-2.579349060e-4,-0.038497191985,2.6003881173e-4,0.0388967078239
330.0000000000000,2.6617730319e-4,0.0397675017180,-2.638664532e-4,-0.039335015362,-2.638664532e-4,-0.039335015362,2.6599016066e-4,0.0397405828238
335.0000000000000,2.7232096550e-4,0.0406266696874,-2.699849138e-4,-0.040187493192,-2.699849138e-4,-0.040187493192,2.7212836660e-4,0.0405991063527
340.0000000000000,2.7866048024e-4,0.0415010534612,-2.762991321e-4,-0.041055178969,-2.762991321e-4,-0.041055178969,2.7846227212e-4,0.0414728316597
345.0000000000000,2.8520520372e-4,0.0423912316377,-2.828184628e-4,-0.041938651010,-2.828184628e-4,-0.041938651010,2.8500122955e-4,0.0423623368037
350.0000000000000,2.9196503838e-4,0.0432978091297,-2.895528062e-4,-0.042838513932,-2.895528062e-4,-0.042838513932,2.9175513666e-4,0.0432682261330
355.0000000000000,2.9895047150e-4,0.0442214187501,-2.965126472e-4,-0.043755400239,-2.965126472e-4,-0.043755400239,2.9873447526e-4,0.0441911318693
360.0000000000000,3.0617261722e-4,0.0451627229125,-3.037090972e-4,-0.044689972023,-3.037090972e-4,-0.044689972023,3.0595035323e-4,0.0451317158069
365.0000000000000,3.1364326210e-4,0.0461224154552,-3.111539395e-4,-0.045642922783,-3.111539395e-4,-0.045642922783,3.1341454997e-4,0.0460906711349
370.0000000000000,3.2137491474e-4,0.0471012236004,-3.188596792e-4,-0.046614979388,-3.188596792e-4,-0.046614979388,3.2113956599e-4,0.0470687243941
375.0000000000000,3.2938085967e-4,0.0480999100589,-3.268395965e-4,-0.047606904179,-3.268395965e-4,-0.047606904179,3.2913867678e-4,0.0480666375808
380.0000000000000,3.3767521618e-4,0.0491192752960,-3.351078062e-4,-0.048619497232,-3.351078062e-4,-0.048619497232,3.3742599151e-4,0.0490852104096
385.0000000000000,3.4627300234e-4,0.0501601599697,-3.436793210e-4,-0.049653598796,-3.436793210e-4,-0.049653598796,3.4601651700e-4,0.0501252827498
390.0000000000000,3.5519020495e-4,0.0512234475593,-3.525701221e-4,-0.050710091924,-3.525701221e-4,-0.050710091924,3.5492622768e-4,0.0511877372514
395.0000000000000,3.6444385600e-4,0.0523100672011,-3.617972350e-4,-0.051789905302,-3.617972350e-4,-0.051789905302,3.6417214188e-4,0.0522735021783
400.0000000000000,3.7405211626e-4,0.0534209967506,-3.713788133e-4,-0.052894016312,-3.713788133e-4,-0.052894016312,3.7377240540e-4,0.0533835544675
405.0000000000000,3.8403436690e-4,0.0545572660925,-3.813342305e-4,-0.054023454342,-3.813342305e-4,-0.054023454342,3.8374638302e-4,0.0545189230361
410.0000000000000,3.9441130991e-4,0.0557199607230,-3.916841800e-4,-0.055179304365,-3.916841800e-4,-0.055179304365,3.9411475886e-4,0.0556806923599
415.0000000000000,4.0520507838e-4,0.0569102256295,-4.024507855e-4,-0.056362710815,-4.024507855e-4,-0.056362710815,4.0489964652e-4,0.0568700063499
420.0000000000000,4.1643935777e-4,0.0581292694984,-4.136577222e-4,-0.057574881797,-4.136577222e-4,-0.057574881797,4.1612471027e-4,0.0580880725564
425.0000000000000,4.2813951931e-4,0.0593783692836,-4.253303503e-4,-0.058817093652,-4.253303503e-4,-0.058817093652,4.2781529833e-4,0.0593361667321
430.0000000000000,4.4033276718e-4,0.0606588751716,-4.374958617e-4,-0.060090695916,-4.374958617e-4,-0.060090695916,4.3999858985e-4,0.0606156377938
435.0000000000000,4.5304830041e-4,0.0619722159838,-4.501834423e-4,-0.061397116725,-4.501834423e-4,-0.061397116725,4.5270375704e-4,0.0619279132190
440.0000000000000,4.6631749323e-4,0.0633199050651,-4.634244520e-4,-0.062737868700,-4.634244520e-4,-0.062737868700,4.6596214455e-4,0.0632745049286
445.0000000000000,4.8017409270e-4,0.0647035467039,-4.772526222e-4,-0.064114555359,-4.772526222e-4,-0.064114555359,4.7980746779e-4,0.0646570157019
450.0000000000000,4.9465443934e-4,0.0661248431475,-4.917042766e-4,-0.065528878135,-4.917042766e-4,-0.065528878135,4.9427603286e-4,0.0660771461844
455.0000000000000,5.0979771140e-4,0.0675856022737,-5.068185750e-4,-0.066982644041,-5.068185750e-4,-0.066982644041,5.0940698081e-4,0.0675367025529
460.0000000000000,5.2564619662e-4,0.0690877459940,-5.226377853e-4,-0.068477774072,-5.226377853e-4,-0.068477774072,5.2524255904e-4,0.0690376049102
465.0000000000000,5.4224559487e-4,0.0706333194688,-5.392075857e-4,-0.070016312411,-5.392075857e-4,-0.070016312411,5.4182842373e-4,0.0705818964922
470.0000000000000,5.5964535581e-4,0.0722245012304,-5.565774024e-4,-0.071600436551,-5.565774024e-4,-0.071600436551,5.5921397719e-4,0.0721717537808
475.0000000000000,5.7789905621e-4,0.0738636143171,-5.748007868e-4,-0.073232468424,-5.748007868e-4,-0.073232468424,5.7745274480e-4,0.0738094976279
480.0000000000000,5.9706482240e-4,0.0755531385407,-5.939358373e-4,-0.074914886660,-5.939358373e-4,-0.074914886660,5.9660279712e-4,0.0754976055115
485.0000000000000,6.1720580407e-4,0.0772957240233,-6.140456737e-4,-0.076650340121,-6.140456737e-4,-0.076650340121,6.1672722328e-4,0.0772387250591
490.0000000000000,6.3839070680e-4,0.0790942061586,-6.351989686e-4,-0.078441662852,-6.351989686e-4,-0.078441662852,6.3789466292e-4,0.0790356889956
495.0000000000000,6.6069439156e-4,0.0809516221775,-6.574705474e-4,-0.080291890640,-6.574705474e-4,-0.080291890640,6.6017990526e-4,0.0808915316928
500.0000000000000,6.8419855126e-4,0.0828712295207,-6.809420638e-4,-0.082204279378,-6.809420638e-4,-0.082204279378,6.8366456496e-4,0.0828095075253
505.0000000000000,7.0899247565e-4,0.0848565262544,-7.057027650e-4,-0.084182325473,-7.057027650e-4,-0.084182325473,7.0843784631e-4,0.0847931112660
510.0000000000000,7.3517391810e-4,0.0869112737965,-7.318503578e-4,-0.086229788558,-7.318503578e-4,-0.086229788558,7.3459740930e-4,0.0868461007919
515.0000000000000,7.6285008014e-4,0.0890395222677,-7.594919925e-4,-0.088350716833,-7.594919925e-4,-0.088350716833,7.6225035311e-4,0.0889725224106
520.0000000000000,7.9213873227e-4,0.0912456388251,-7.887453838e-4,-0.090549475385,-7.887453838e-4,-0.090549475385,7.9151433601e-4,0.0911767391676
525.0000000000000,8.2316949309e-4,0.0935343393980,-8.197400884e-4,-0.092830777909,-8.197400884e-4,-0.092830777909,8.2251885325e-4,0.0934634625519
530.0000000000000,8.5608529294e-4,0.0959107243107,-8.526189688e-4,-0.095199722314,-8.526189688e-4,-0.095199722314,8.5540669932e-4,0.0958377880859
535.0000000000000,8.9104405292e-4,0.0983803183614,-8.875398712e-4,-0.097661830784,-8.875398712e-4,-0.097661830784,8.9033564547e-4,0.0983052353654
540.0000000000000,9.2822061648e-4,0.1009491160188,-9.246775563e-4,-0.100223094950,-9.246775563e-4,-0.100223094950,9.2748036946e-4,0.1008717932144
545.0000000000000,9.6780897785e-4,0.1036236325170,-9.642259263e-4,-0.102890026964,-9.642259263e-4,-0.102890026964,9.6703468193e-4,0.1035439707320
550.0000000000000,0.0010100248607,0.1064109617675,-1.006400603e-3,-0.105669717385,-1.006400603e-3,-0.105669717385,0.0010092141026,0.1063288551491
555.0000000000000,0.0010551087113,0.1093188421708,-1.051441919e-3,-0.108569900952,-1.051441919e-3,-0.108569900952,0.0010542588509,0.1092341775786
560.0000000000000,0.0011033291842,0.1123557316169,-1.099618403e-3,-0.111599031561,-1.099618403e-3,-0.111599031561,0.0011024373280,0.1122683879450
565.0000000000000,0.0011549872158,0.1155308932055,-1.151230848e-3,-0.114766367933,-1.151230848e-3,-0.114766367933,0.0011540501867,0.1154407406236
570.0000000000000,0.0012104208002,0.1188544935174,-1.206617090e-3,-0.118082071847,-1.206617090e-3,-0.118082071847,0.0012094351032,0.1187613926199
575.0000000000000,0.0012700106122,0.1223377156348,-1.266157624e-3,-0.121557321104,-1.266157624e-3,-0.121557321104,0.0012689723944,0.1222415164826
580.0000000000000,0.0013341866507,0.1259928895586,-1.330282248e-3,-0.125204439883,-1.330282248e-3,-0.125204439883,0.0013330916549,0.1258934305985
585.0000000000000,0.0014034361213,0.1298336432298,-1.399477938e-3,-0.129037049692,-1.399477938e-3,-0.129037049692,0.0014022796333,0.1297307500715
590.0000000000000,0.0014783128303,0.1338750780544,-1.474298240e-3,-0.133070244807,-1.474298240e-3,-0.133070244807,0.0014770896161,0.1337685620819
595.0000000000000,0.0015594484286,0.1381339736993,-1.555374509e-3,-0.137320796978,-1.555374509e-3,-0.137320796978,0.0015581526617,0.1380236304895
600.0000000000000,0.0016475659359,0.1426290280152,-1.643429425e-3,-0.141807395232,-1.643429425e-3,-0.141807395232,0.0016461911123,0.1425146355303
605.0000000000000,0.0017434960884,0.1473811393240,-1.739293336e-3,-0.146550928031,-1.739293336e-3,-0.146550928031,0.0017420349254,0.1472624558377
610.0000000000000,0.0018481972058,0.1524137400596,-1.843924111e-3,-0.151574816755,-1.843924111e-3,-0.151574816755,0.0018466415231,0.1522905017692
615.0000000000000,0.0019627794692,0.1577531930016,-1.958431412e-3,-0.156905411747,-1.958431412e-3,-0.156905411747,0.0019611200466,0.1576251112663
620.0000000000000,0.0020885347681,0.1634292642431,-2.084106523e-3,-0.162572465063,-2.084106523e-3,-0.162572465063,0.0020867611757,0.1632960223769
625.0000000000000,0.0022269736247,0.1694756908040,-2.222459259e-3,-0.168609697810,-2.222459259e-3,-0.168609697810,0.0022250740182,0.1693369403333
630.0000000000000,0.0023798711819,0.1759308657464,-2.375263931e-3,-0.175055484945,-2.375263931e-3,-0.175055484945,0.0023778320550,0.1757862220220
635.0000000000000,0.0025493248896,0.1828386701783,-2.544617006e-3,-0.181953686885,-2.544617006e-3,-0.181953686885,0.0025471307721,0.1826877072038
640.0000000000000,0.0027378274193,0.1902494902450,-2.733009990e-3,-0.189354666016,-2.733009990e-3,-0.189354666016,0.0027354605071,0.1900917345456
645.0000000000000,0.0029483595822,0.1982214689278,-2.943422296e-3,-0.197316537906,-2.943422296e-3,-0.197316537906,0.0029457992800,0.1980563922407
650.0000000000000,0.0031845097780,0.2068220584205,-3.179440644e-3,-0.205906722947,-3.179440644e-3,-0.205906722947,0.0031817321302,0.2066490689210
655.0000000000000,0.0034506290014,0.2161299607758,-3.445413991e-3,-0.215203886087,-3.445413991e-3,-0.215203886087,0.0034476059771,0.2159483924755
660.0000000000000,0.0037520340395,0.2262375750212,-3.746656631e-3,-0.225300382795,-3.746656631e-3,-0.225300382795,0.0037487326275,0.2260466748589
665.0000000000000,0.0040952767806,0.2372541119218,-4.089717385e-3,-0.236305372351,-4.089717385e-3,-0.236305372351,0.0040916578311,0.2370530239195
670.0000000000000,0.0044885054111,0.2493095989680,-4.482740618e-3,-0.248348820950,-4.482740618e-3,-0.248348820950,0.0044845221389,0.2490973446123
675.0000000000000,0.0049419551679,0.2625600871766,-4.935956770e-3,-0.261586706047,-4.935956770e-3,-0.261586706047,0.0049375511944,0.2623355408927
680.0000000000000,0.0054686246130,0.2771945024516,-5.462358309e-3,-0.276207864491,-5.462358309e-3,-0.276207864491,0.0054637313738,0.2769563606204
685.0000000000000,0.0060852221471,0.2934437809389,-6.078645798e-3,-0.292443123568,-6.078645798e-3,-0.292443123568,0.0060797554105,0.2931905223035
690.0000000000000,0.0068135136169,0.3115932285302,-6.806574876e-3,-0.310577654687,-6.806574876e-3,-0.310577654687,0.0068073687363,0.3113230629553
695.0000000000000,0.0076822777212,0.3319995143592,-7.674910738e-3,-0.330967958860,-7.674910738e-3,-0.330967958860,0.0076753230512,0.3317103155737
700.0000000000000,0.0087302039600,0.3551144592183,-8.722324726e-3,-0.354065643910,-8.722324726e-3,-0.354065643910,0.0087222715498,0.3548036751383
705.0000000000000,0.0100102904936,0.3815190128796,-0.010001790122,-0.380451385774,-0.010001790122,-0.380451385774,0.0100011626465,0.3811835439080
710.0000000000000,0.0115966994132,0.4119728990570,-0.011587434195,-0.410884550067,-0.011587434195,-0.410884550067,0.0115860888042,0.4116089295954
715.0000000000000,0.0135957736313,0.4474890505863,-0.013585549911,-0.446377592178,-0.013585549911,-0.446377592178,0.0135832930668,0.4470918103912
720.0000000000000,0.0161643739968,0.4894485717129,-0.016152924427,-0.488310965365,-0.016152924427,-0.488310965365,0.0161494889336,0.4890119889028
725.0000000000000,0.0195416713827,0.5397845039909,-0.019528616224,-0.538616800040,-0.019528616224,-0.538616800040,0.0195236225493,0.5393006848558
730.0000000000000,0.0241069794087,0.6012876764133,-0.024091760628,-0.600084609733,-0.024091760628,-0.600084609733,0.0240846510295,0.6007460969614
735.0000000000000,0.0304911816318,0.6781408329116,-0.030472944573,-0.676895166819,-0.030472944573,-0.676895166819,0.0304628648255,0.6775270269994
740.0000000000000,0.0398070064107,0.7769074546076,-0.039784373105,-0.775608858682,-0.039784373105,-0.775608858682,0.0397699459153,0.7762007700952
745.0000000000000,0.0541684412266,0.9084996160997,-0.054139039230,-0.907132616398,-0.054139039230,-0.907132616398,0.0541178932991,0.9076691162573
750.0000000000000,0.0780021799729,1.0924720484952,-0.077961553836,-1.091011953642,-0.077961553836,-1.091011953642,0.0779292358387,1.0914683661010
755.0000000000000,0.1219006011389,1.3676034207148,-0.121839309709,-1.366007260089,-0.121839309709,-1.366007260089,0.1217863829682,1.3663406386949
760.0000000000000,0.2166781232202,1.8227455204257,-0.216572217205,-1.820928439870,-0.216572217205,-1.820928439870,0.2164747437307,1.8210539744086
765.0000000000000,0.4855027140594,2.7119154656695,-0.485270236199,-2.709672864685,-0.485270236199,-2.709672864685,0.4850462973567,2.7093860550740
770.0000000000000,1.8470859772133,5.0613311608093,-1.846212136575,-5.057974595568,-1.846212136575,-5.057974595568,1.8453471839763,5.0565873265464
