R 50.00000
Frequency (MHz),RE[Y11],IM[Y11],RE[Y12],IM[Y12],RE[Y21],IM[Y21],RE[Y22],IM[Y22]
100.0000000000000,1.4428953207e-4,0.0143162749868,-1.428652289e-4,-0.014162977810,-1.428652289e-4,-0.014162977810,1.4423847205e-4,0.0143111178832
105.0000000000000,1.4777062960e-4,0.0150731262660,-1.463210429e-4,-0.014912149890,-1.463210429e-4,-0.014912149890,1.4771837992e-4,0.0150676891444
110.0000000000000,1.5134365546e-4,0.0158362446387,-1.498678824e-4,-0.015667586828,-1.498678824e-4,-0.015667586828,1.5129013148e-4,0.0158305237303
115.0000000000000,1.5500956959e-4,0.0166059977460,-1.535069762e-4,-0.016429656218,-1.535069762e-4,-0.016429656218,1.5495466867e-4,0.0165999891448
120.0000000000000,1.5876983726e-4,0.0173827640620,-1.572399916e-4,-0.017198736445,-1.572399916e-4,-0.017198736445,1.5871344902e-4,0.0173764637076
125.0000000000000,1.6262644204e-4,0.0181669335338,-1.610690613e-4,-0.017975217339,-1.610690613e-4,-0.017975217339,1.6256845523e-4,0.0181603371948
130.0000000000000,1.6658188681e-4,0.0189589082800,-1.649967967e-4,-0.018759500884,-1.649967967e-4,-0.018759500884,1.6652219374e-4,0.0189520115380
135.0000000000000,1.7063918839e-4,0.0197591033490,-1.690262916e-4,-0.019552001984,-1.690262916e-4,-0.019552001984,1.7057768749e-4,0.0197519015830
140.0000000000000,1.7480186922e-4,0.0205679475360,-1.731611218e-4,-0.020353149281,-1.731611218e-4,-0.020353149281,1.7473846621e-4,0.0205604359077
145.0000000000000,1.7907394836e-4,0.0213858842621,-1.774053418e-4,-0.021163386041,-1.774053418e-4,-0.021163386041,1.7900855654e-4,0.0213780577018
150.0000000000000,1.8345993356e-4,0.0222133725168,-1.817634813e-4,-0.021983171091,-1.817634813e-4,-0.021983171091,1.8339247331e-4,0.0222052257095
155.0000000000000,1.8796481508e-4,0.0230508878667,-1.862405429e-4,-0.022812979836,-1.862405429e-4,-0.022812979836,1.8789521300e-4,0.0230424152384
160.0000000000000,1.9259406229e-4,0.0238989235351,-1.908420013e-4,-0.023653305330,-1.908420013e-4,-0.023653305330,1.9252225001e-4,0.0238901192398
165.0000000000000,1.9735362321e-4,0.0247579915560,-1.955738045e-4,-0.024504659437,-1.955738045e-4,-0.024504659437,1.9727953607e-4,0.0247488494620
170.0000000000000,2.0224992740e-4,0.0256286240087,-2.004423787e-4,-0.025367574061,-2.004423787e-4,-0.025367574061,2.0217350305e-4,0.0256191376853
175.0000000000000,2.0728989256e-4,0.0265113743380,-2.054546357e-4,-0.026242602468,-2.054546357e-4,-0.026242602468,2.0721106953e-4,0.0265015370416
180.0000000000000,2.1248093480e-4,0.0274068187678,-2.106179840e-4,-0.027130320697,-2.106179840e-4,-0.027130320697,2.1239965112e-4,0.0273966234275
185.0000000000000,2.1783098290e-4,0.0283155578145,-2.159403442e-4,-0.028031329072,-2.159403442e-4,-0.028031329072,2.1774717481e-4,0.0283049970175
190.0000000000000,2.2334849678e-4,0.0292382179092,-2.214301669e-4,-0.028946253829,-2.214301669e-4,-0.028946253829,2.2326209743e-4,0.0292272838854
195.0000000000000,2.2904249019e-4,0.0301754531385,-2.270964569e-4,-0.029875748847,-2.270964569e-4,-0.029875748847,2.2895342852e-4,0.0301641377439
200.0000000000000,2.3492255799e-4,0.0311279471128,-2.329487996e-4,-0.030820497526,-2.329487996e-4,-0.030820497526,2.3483075764e-4,0.0311162418128
205.0000000000000,2.4099890824e-4,0.0320964149751,-2.389973941e-4,-0.031781214787,-2.389973941e-4,-0.031781214787,2.4090428653e-4,0.0320843108260
210.0000000000000,2.4728239923e-4,0.0330816055619,-2.452530897e-4,-0.032758649235,-2.452530897e-4,-0.032758649235,2.4718486630e-4,0.0330690931917
215.0000000000000,2.5378458204e-4,0.0340843037310,-2.517274288e-4,-0.033753585487,-2.517274288e-4,-0.033753585487,2.5368403994e-4,0.0340713733190
220.0000000000000,2.6051774872e-4,0.0351053328709,-2.584326950e-4,-0.034766846679,-2.584326950e-4,-0.034766846679,2.6041409068e-4,0.0350919741257
225.0000000000000,2.6749498675e-4,0.0361455576103,-2.653819676e-4,-0.035799297176,-2.653819676e-4,-0.035799297176,2.6738809641e-4,0.0361317597459
230.0000000000000,2.7473024010e-4,0.0372058867452,-2.725891825e-4,-0.036851845498,-2.725891825e-4,-0.036851845498,2.7461999083e-4,0.0371916384564
235.0000000000000,2.8223837764e-4,0.0382872764069,-2.800692010e-4,-0.037925447484,-2.800692010e-4,-0.037925447484,2.8212463189e-4,0.0382725658421
240.0000000000000,2.9003526940e-4,0.0393907334931,-2.878378854e-4,-0.039021109727,-2.878378854e-4,-0.039021109727,2.8991787800e-4,0.0393755482256
245.0000000000000,2.9813787152e-4,0.0405173193892,-2.959121841e-4,-0.040139893292,-2.959121841e-4,-0.040139893292,2.9801667306e-4,0.0405016463859
250.0000000000000,3.0656432072e-4,0.0416681540095,-3.043102265e-4,-0.041282917755,-3.043102265e-4,-0.041282917755,3.0643914091e-4,0.0416519795976
255.0000000000000,3.1533403940e-4,0.0428444201908,-3.130514274e-4,-0.042451365596,-3.130514274e-4,-0.042451365596,3.1520469035e-4,0.0428277300219
260.0000000000000,3.2446785228e-4,0.0440473684762,-3.221566037e-4,-0.043646486983,-3.221566037e-4,-0.043646486983,3.2433413182e-4,0.0440301474875
265.0000000000000,3.3398811610e-4,0.0452783223292,-3.316481045e-4,-0.044869604982,-3.316481045e-4,-0.044869604982,3.3384980701e-4,0.0452605547019
270.0000000000000,3.4391886385e-4,0.0465386838266,-3.415499546e-4,-0.046122121250,-3.415499546e-4,-0.046122121250,3.4377573303e-4,0.0465203529407
275.0000000000000,3.5428596515e-4,0.0478299398807,-3.518880154e-4,-0.047405522255,-3.518880154e-4,-0.047405522255,3.5413776269e-4,0.0478110282663
280.0000000000000,3.6511730476e-4,0.0491536690506,-3.626901628e-4,-0.048721386084,-3.626901628e-4,-0.048721386084,3.6496376304e-4,0.0491341583356
285.0000000000000,3.7644298173e-4,0.0505115490100,-3.739864867e-4,-0.050071389913,-3.739864867e-4,-0.050071389913,3.7628381426e-4,0.0504914198631
290.0000000000000,3.8829553150e-4,0.0519053647457,-3.858095129e-4,-0.051457318196,-3.858095129e-4,-0.051457318196,3.8813043172e-4,0.0518845968143
295.0000000000000,4.0071017423e-4,0.0533370175723,-3.981944512e-4,-0.052881071685,-3.981944512e-4,-0.052881071685,4.0053881415e-4,0.0533155894162
300.0000000000000,4.1372509269e-4,0.0548085350614,-4.111794733e-4,-0.054344677350,-4.111794733e-4,-0.054344677350,4.1354712139e-4,0.0547864240798
305.0000000000000,4.2738174389e-4,0.0563220819940,-4.248060243e-4,-0.055850299332,-4.248060243e-4,-0.055850299332,4.2719678584e-4,0.0562992643467
310.0000000000000,4.4172520917e-4,0.0578799724632,-4.391191726e-4,-0.057400251040,-4.391191726e-4,-0.057400251040,4.4153286231e-4,0.0578564229845
315.0000000000000,4.5680458815e-4,0.0594846832704,-4.541680041e-4,-0.058997008545,-4.541680041e-4,-0.058997008545,4.5660442174e-4,0.0594603753755
320.0000000000000,4.7267344295e-4,0.0611388687800,-4.700060657e-4,-0.060643225430,-4.700060657e-4,-0.060643225430,4.7246499523e-4,0.0611137743628
325.0000000000000,4.8939030027e-4,0.0628453774220,-4.866918676e-4,-0.062341749287,-4.866918676e-4,-0.062341749287,4.8917307573e-4,0.0628194667431
330.0000000000000,5.0701921998e-4,0.0646072700591,-5.042894516e-4,-0.064095640080,-5.042894516e-4,-0.064095640080,5.0679268636e-4,0.0645805116236
335.0000000000000,5.2563044054e-4,0.0664278404714,-5.228690366e-4,-0.065908190623,-5.228690366e-4,-0.065908190623,5.2539402541e-4,0.0664002008944
340.0000000000000,5.4530111340e-4,0.0683106382468,-5.425077523e-4,-0.067782949464,-5.425077523e-4,-0.067782949464,5.4505420033e-4,0.0682820821064
345.0000000000000,5.6611614072e-4,0.0702594944171,-5.632904769e-4,-0.069723746512,-5.632904769e-4,-0.069723746512,5.6585806495e-4,0.0702299840916
350.0000000000000,5.8816913339e-4,0.0722785502283,-5.853107949e-4,-0.071734721805,-5.853107949e-4,-0.071734721805,5.8789917695e-4,0.0722480457179
355.0000000000000,6.1156350962e-4,0.0743722895061,-6.086720955e-4,-0.073820357858,-6.086720955e-4,-0.073820357858,6.1128089581e-4,0.0743407482352
360.0000000000000,6.3641375813e-4,0.0765455751488,-6.334888349e-4,-0.075985516151,-6.334888349e-4,-0.075985516151,6.3611764523e-4,0.0765129517475
365.0000000000000,6.6284689496e-4,0.0788036903773,-6.598879934e-4,-0.078235478364,-6.598879934e-4,-0.078235478364,6.6253636913e-4,0.0787699364391
370.0000000000000,6.9100414847e-4,0.0811523854824,-6.880107593e-4,-0.080575993115,-6.880107593e-4,-0.080575993115,6.9067821566e-4,0.0811174492948
375.0000000000000,7.2104291464e-4,0.0835979309420,-7.180144839e-4,-0.083013329057,-7.180144839e-4,-0.083013329057,7.2070049138e-4,0.0835617571869
380.0000000000000,7.5313903323e-4,0.0861471779472,-7.500749571e-4,-0.085554335389,-7.500749571e-4,-0.085554335389,7.5277893606e-4,0.0861097073658
385.0000000000000,7.8748944669e-4,0.0888076275699,-7.843890652e-4,-0.088206511004,-7.843890652e-4,-0.088206511004,7.8711038011e-4,0.0887687965882
390.0000000000000,8.2431531721e-4,0.0915875100484,-8.211779077e-4,-0.090978083750,-8.211779077e-4,-0.090978083750,8.2391585979e-4,0.0915472503569
395.0000000000000,8.6386569455e-4,0.0944958759599,-8.606904631e-4,-0.093878101579,-8.606904631e-4,-0.093878101579,8.6344428295e-4,0.0944541140404
400.0000000000000,9.0642184890e-4,0.0975427014134,-9.032079215e-4,-0.096916537708,-9.032079215e-4,-0.096916537708,9.0597675940e-4,0.0974993580056
405.0000000000000,9.5230241023e-4,0.1007390098467,-9.490488217e-4,-0.100104412378,-9.490488217e-4,-0.100104412378,9.5183173713e-4,0.1006939993443
410.0000000000000,0.0010018694909,0.1040970135595,-9.985751728e-4,-0.103453934354,-9.985751728e-4,-0.103453934354,0.0010013711218,0.1040502433248
415.0000000000000,0.0010555360121,0.1076302788341,-1.052199778e-3,-0.106978665989,-1.052199778e-3,-0.106978665989,0.0010550075985,0.1075816484174
420.0000000000000,0.0011137745132,0.1113539193421,-1.110395040e-3,-0.110693716580,-1.110395040e-3,-0.110693716580,0.0011132134363,0.1113033195895
425.0000000000000,0.0011771277976,0.1152848236692,-1.173703609e-3,-0.114615969829,-1.173703609e-3,-0.114615969829,0.0011765311280,0.1152321356993
430.0000000000000,0.0012462218651,0.1194419241882,-1.242751304e-3,-0.118764352632,-1.242751304e-3,-0.118764352632,0.0012455863148,0.1193870182138
435.0000000000000,0.0013217817118,0.1238465163196,-1.318262913e-3,-0.123160154255,-1.318262913e-3,-0.123160154255,0.0013211035773,0.1237892502852
440.0000000000000,0.0014046507467,0.1285226395531,-1.401081604e-3,-0.127827407240,-1.401081604e-3,-0.127827407240,0.0014039258412,0.1284628575530
445.0000000000000,0.0014958148051,0.1334975346312,-1.492192928e-3,-0.132793344458,-1.492192928e-3,-0.132793344458,0.0014950383762,0.1334350650634
450.0000000000000,0.0015964320447,0.1388021952670,-1.592754712e-3,-0.138088950672,-1.592754712e-3,-0.138088950672,0.0015955986756,0.1387368486697
455.0000000000000,0.0017078704335,0.1444720380143,-1.704134529e-3,-0.143749632206,-1.704134529e-3,-0.143749632206,0.0017069739220,0.1444036045158
460.0000000000000,0.0018317551144,0.1505477208989,-1.827957058e-3,-0.149816035349,-1.827957058e-3,-0.149816035349,0.0018307883255,0.1504759671954
465.0000000000000,0.0019700287401,0.1570761508314,-1.966164391e-3,-0.156335053470,-1.966164391e-3,-0.156335053470,0.0019689834229,0.1570008165842
470.0000000000000,0.0021250290005,0.1641117326135,-2.121093547e-3,-0.163361075668,-2.121093547e-3,-0.163361075668,0.0021238955612,0.1640325261258
475.0000000000000,0.0022995891831,0.1717179299396,-2.295576999e-3,-0.170957547324,-2.295576999e-3,-0.170957547324,0.0022983563998,0.1716345229335
480.0000000000000,0.0024971699337,0.1799692332518,-2.493074398e-3,-0.179198937386,-2.493074398e-3,-0.179198937386,0.0024958245957,0.1798812545104
485.0000000000000,0.0027220337944,0.1889536637611,-2.717847062e-3,-0.188173241670,-2.717847062e-3,-0.188173241670,0.0027205602406,0.1888606913269
490.0000000000000,0.0029794791675,0.1987759921429,-2.975191867e-3,-0.197985200628,-2.975191867e-3,-0.197985200628,0.0029778586906,0.1986775436602
495.0000000000000,0.0032761580090,0.2095619217158,-3.271758859e-3,-0.208760481317,-3.271758859e-3,-0.208760481317,0.0032743680766,0.2094574423616
500.0000000000000,0.0036205133463,0.2214635909253,-3.615988635e-3,-0.220651178301,-3.615988635e-3,-0.220651178301,0.0036185265701,0.2213524381669
505.0000000000000,0.0040233912089,0.2346669073752,-4.018724104e-3,-0.233843145565,-4.018724104e-3,-0.233843145565,0.0040211739619,0.2345483314991
510.0000000000000,0.0044989112260,0.2494014662287,-4.494080835e-3,-0.248565912055,-4.494080835e-3,-0.248565912055,0.0044964217584,0.2492745851511
515.0000000000000,0.0050657288648,0.2659541813832,-5.060708926e-3,-0.265106308928,-5.060708926e-3,-0.265106308928,0.0050629146929,0.2658179476004
520.0000000000000,0.0057489044417,0.2846883581440,-5.743661481e-3,-0.283827536717,-5.743661481e-3,-0.283827536717,0.0057456986611,0.2845415146854
525.0000000000000,0.0065827367362,0.3060709211758,-6.577227410e-3,-0.305196385441,-6.577227410e-3,-0.305196385441,0.0065790527031,0.3059119418578
530.0000000000000,0.0076151752030,0.3307121761371,-7.609342366e-3,-0.329822984770,-7.609342366e-3,-0.329822984770,0.0076108986744,0.3305391828905
535.0000000000000,0.0089149021830,0.3594253914271,-8.908668916e-3,-0.358520368590,-8.908668916e-3,-0.358520368590,0.0089098793783,0.3592360372692
540.0000000000000,0.0105831049882,0.3933187625122,-0.010576365241,-0.392396412817,-0.010576365241,-0.392396412817,0.0105771238702,0.3931100614929
545.0000000000000,0.0127738544962,0.4339423190907,-0.012766457854,-0.433000700200,-0.012766457854,-0.433000700200,0.0127666143138,0.4337103915319
550.0000000000000,0.0157311103988,0.4835322632855,-0.015722836193,-0.482568788061,-0.015722836193,-0.482568788061,0.0157221699115,0.4832719401346
555.0000000000000,0.0198598740497,0.5454373874666,-0.019850384965,-0.544448503161,-0.019850384965,-0.544448503161,0.0198485587601,0.5451415687764
560.0000000000000,0.0258728791952,0.6249080189089,-0.025861632616,-0.623888658875,-0.025861632616,-0.623888658875,0.0258581040625,0.6245665774096
565.0000000000000,0.0351205230934,0.7306654743951,-0.035106587377,-0.729608057248,-0.035106587377,-0.729608057248,0.0351004251357,0.7302632541096
570.0000000000000,0.0504210045918,0.8783271718735,-0.050402636118,-0.877219613039,-0.050402636118,-0.877219613039,0.0503920971076,0.8778400117849
575.0000000000000,0.0784888745314,1.0988585712340,-0.078462394845,-1.097679857397,-0.078462394845,-1.097679857397,0.0784438017073,1.0982444554659
580.0000000000000,0.1387493206811,1.4633372531051,-0.138705453129,-1.462045875942,-0.138705453129,-1.462045875942,0.1386695319183,1.4625131817109
585.0000000000000,0.3083344950296,2.1769676098042,-0.308241731007,-2.175462890108,-0.308241731007,-2.175462890108,0.3081569822387,2.1757322581768
590.0000000000000,1.1646372093580,4.1260643065367,-1.164297591757,-4.123989985893,-1.164297591757,-4.123989985893,1.1639661154241,4.1237052653988
595.0000000000000,15.882947591965,-0.078193375223,-15.87836396156,0.0790636072026,-15.87836396156,0.0790636072026,15.873789751077,-0.078129233049
600.0000000000000,1.1558696838503,-4.139595775201,-1.155532216570,4.1393019571321,-1.155532216570,4.1393019571321,1.1552029998647,-4.137188510830
605.0000000000000,0.3054790593917,-2.194908983209,-0.305386839740,2.1951834334091,-0.305386839740,2.1951834334091,0.3053028549003,-2.193622728681
610.0000000000000,0.1370642773856,-1.482317987919,-0.137020618779,1.4828054772617,-0.137020618779,1.4828054772617,0.1369852359881,-1.481442382409
615.0000000000000,0.0772854470694,-1.118222816014,-0.077259012170,1.1188228667523,-0.077259012170,1.1188228667523,0.0772409031668,-1.117556927963
620.0000000000000,0.0494819360751,-0.897873652353,-0.049463499598,0.8985448205236,-0.049463499598,0.8985448205236,0.0494534417996,-0.897334600708
625.0000000000000,0.0343496882975,-0.750313318980,-0.034335593795,0.7510346193961,-0.034335593795,0.7510346193961,0.0343299318496,-0.749859134298
630.0000000000000,0.0252190886237,-0.644618829427,-0.025207603952,0.6453781928690,-0.025207603952,0.6453781928690,0.0252046062543,-0.644225371585
635.0000000000000,0.0192925146113,-0.565190777744,-0.019282714892,0.5659806327649,-0.019282714892,0.5659806327649,0.0192814568719,-0.564842900825
640.0000000000000,0.0152303635780,-0.503316529626,-0.015221710531,0.5041318169079,-0.015221710531,0.5041318169079,0.0152216541031,-0.503004111203
645.0000000000000,0.0123261288438,-0.453750357583,-0.012318288104,0.4545875303224,-0.012318288104,0.4545875303224,0.0123190990429,-0.453466299780
650.0000000000000,0.0101786620475,-0.413146089616,-0.010171415048,0.4140025658291,-0.010171415048,0.4140025658291,0.0101728748898,-0.412885223872
655.0000000000000,0.0085465195335,-0.379269104934,-8.539717410e-3,0.3801429469604,-8.539717410e-3,0.3801429469604,0.0085416773771,-0.379027551107
660.0000000000000,0.0072773452072,-0.350570373999,-7.270883087e-3,0.3514600908245,-7.270883087e-3,0.3514600908245,0.0072732383783,-0.350345145067
665.0000000000000,0.0062711618368,-0.325942359108,-6.264963718e-3,0.3268467790674,-6.264963718e-3,0.3268467790674,0.0062676383944,-0.325731106611
670.0000000000000,0.0054601660352,-0.304572238972,-5.454175496e-3,0.3054904247754,-5.454175496e-3,0.3054904247754,0.0054571131963,-0.304373083089
675.0000000000000,0.0047970625454,-0.285850020612,-4.791236826e-3,0.2867812108606,-4.791236826e-3,0.2867812108606,0.0047943948449,-0.285661433210
680.0000000000000,0.0042480497724,-0.269309003514,-4.242355876e-3,0.2702525713833,-4.242355876e-3,0.2702525713833,0.0042457012714,-0.269129725526
685.0000000000000,0.0037884521487,-0.254586046611,-3.782864209e-3,0.2555414699942,-3.782864209e-3,0.2555414699942,0.0037863711645,-0.254415028331
690.0000000000000,0.0033999166952,-0.241394358738,-3.394414148e-3,0.2423611982282,-3.394414148e-3,0.2423611982282,0.0033980621494,-0.241230715792
695.0000000000000,0.0030685649347,-0.229504438050,-3.063131227e-3,0.2304823204241,-3.063131227e-3,0.2304823204241,0.0030669037698,-0.229347418368
700.0000000000000,0.0027837455033,-0.218730449128,-2.778367159e-3,0.2197190547553,-2.778367159e-3,0.2197190547553,0.0027822508174,-0.218579407765
705.0000000000000,0.0025371742606,-0.208920310157,-2.531840200e-3,0.2099193632649,-2.531840200e-3,0.2099193632649,0.0025358239405,-0.208774689829
710.0000000000000,0.0023223302448,-0.199948362905,-2.317031271e-3,0.2009576239638,-2.317031271e-3,0.2009576239638,0.0023211059471,-0.199807678756
715.0000000000000,0.0021340240342,-0.191709873082,-2.128752453e-3,0.1927291327678,-2.128752453e-3,0.1927291327678,0.0021329104163,-0.191573700616
720.0000000000000,0.0019680845046,-0.184116849221,-1.962833827e-3,0.1851459235896,-1.962833827e-3,0.1851459235896,0.0019670686356,-0.183984814650
725.0000000000000,0.0018211282768,-0.177094825508,-1.815892991e-3,0.1781335520960,-1.815892991e-3,0.1781335520960,0.0018201991829,-0.176966597954
730.0000000000000,0.0016903878190,-0.170580358876,-1.685163215e-3,0.1716285935190,-1.685163215e-3,0.1716285935190,0.0016895361276,-0.170455644009
735.0000000000000,0.0015735817652,-0.164519062047,-1.568363793e-3,0.1655766762714,-1.568363793e-3,0.1655766762714,0.0015727994231,-0.164397596870
740.0000000000000,0.0014688159860,-0.158864043140,-1.463601143e-3,0.1599309220018,-1.463601143e-3,0.1599309220018,0.0014680960363,-0.158745591665
745.0000000000000,0.0013745073727,-0.153574657195,-1.369292614e-3,0.1546506974746,-1.369292614e-3,0.1546506974746,0.0013738437749,-0.153459006835
750.0000000000000,0.0012893245550,-0.148615499141,-1.284107222e-3,0.1497006078359,-1.284107222e-3,0.1497006078359,0.0012887120393,-0.148502457696
755.0000000000000,0.0012121413894,-0.143955585477,-1.206919148e-3,0.1450496785251,-1.206919148e-3,0.1450496785251,0.0012115753379,-0.143844978580
760.0000000000000,0.0011420001691,-0.139567684645,-1.136770964e-3,0.1406706858415,-1.136770964e-3,0.1406706858415,0.0011414765190,-0.139459353596
765.0000000000000,0.0010780823014,-0.135427765502,-1.072844314e-3,0.1365396055800,-1.072844314e-3,0.1365396055800,0.0010775974639,-0.135321565428
770.0000000000000,0.0010196847693,-0.131514540299,-1.014436384e-3,0.1326351561346,-1.014436384e-3,0.1326351561346,0.0010192355631,-0.131410338566
