R 50.00000
Frequency (GHz),RE[Y11],IM[Y11],RE[Y12],IM[Y12],RE[Y21],IM[Y21],RE[Y22],IM[Y22]
0.250000000000000,3.1639320954e-5,0.0051102727424,-3.059838481e-5,-4.940996876e-3,-3.059838481e-5,-4.940996876e-3,3.1631529514e-5,0.0051089746015
0.252000000000000,3.1617471817e-5,0.0051513823375,-3.094351066e-5,-4.981031939e-3,-3.094351066e-5,-4.981031939e-3,3.1612048888e-5,0.0051500719703
0.254000000000000,3.1598277385e-5,0.0051925182968,-3.128612364e-5,-5.021082223e-3,-3.128612364e-5,-5.021082223e-3,3.1595167092e-5,0.0051911957422
0.256000000000000,3.1581784166e-5,0.0052336806173,-3.162617966e-5,-5.061147941e-3,-3.162617966e-5,-5.061147941e-3,3.1580931234e-5,0.0052323459146
0.258000000000000,3.1568036289e-5,0.0052748692969,-3.196363707e-5,-5.101229308e-3,-3.196363707e-5,-5.101229308e-3,3.1569386039e-5,0.0052735224857
0.260000000000000,3.1557075532e-5,0.0053160843337,-3.229845660e-5,-5.141326538e-3,-3.229845660e-5,-5.141326538e-3,3.1560573886e-5,0.0053147254539
0.262000000000000,3.1548941361e-5,0.0053573257268,-3.263060133e-5,-5.181439846e-3,-3.263060133e-5,-5.181439846e-3,3.1554534837e-5,0.0053559548185
0.264000000000000,3.1543670966e-5,0.0053985934759,-3.296003667e-5,-5.221569445e-3,-3.296003667e-5,-5.221569445e-3,3.1551306680e-5,0.0053972105794
0.266000000000000,3.1541299293e-5,0.0054398875812,-3.328673030e-5,-5.261715549e-3,-3.328673030e-5,-5.261715549e-3,3.1550924959e-5,0.0054384927374
0.268000000000000,3.1541859087e-5,0.0054812080442,-3.361065214e-5,-5.301878370e-3,-3.361065214e-5,-5.301878370e-3,3.1553423014e-5,0.0054798012938
0.270000000000000,3.1545380923e-5,0.0055225548666,-3.393177431e-5,-5.342058121e-3,-3.393177431e-5,-5.342058121e-3,3.1558832016e-5,0.0055211362509
0.272000000000000,3.1551893247e-5,0.0055639280515,-3.425007113e-5,-5.382255015e-3,-3.425007113e-5,-5.382255015e-3,3.1567181007e-5,0.0055624976120
0.274000000000000,3.1561422413e-5,0.0056053276025,-3.456551900e-5,-5.422469261e-3,-3.456551900e-5,-5.422469261e-3,3.1578496935e-5,0.0056038853808
0.276000000000000,3.1573992721e-5,0.0056467535244,-3.487809645e-5,-5.462701072e-3,-3.487809645e-5,-5.462701072e-3,3.1592804692e-5,0.0056452995624
0.278000000000000,3.1589626456e-5,0.0056882058228,-3.518778403e-5,-5.502950658e-3,-3.518778403e-5,-5.502950658e-3,3.1610127153e-5,0.0056867401626
0.280000000000000,3.1608343923e-5,0.0057296845044,-3.549456433e-5,-5.543218229e-3,-3.549456433e-5,-5.543218229e-3,3.1630485217e-5,0.0057282071883
0.282000000000000,3.1630163490e-5,0.0057711895768,-3.579842190e-5,-5.583503993e-3,-3.579842190e-5,-5.583503993e-3,3.1653897839e-5,0.0057697006473
0.284000000000000,3.1655101624e-5,0.0058127210487,-3.609934321e-5,-5.623808159e-3,-3.609934321e-5,-5.623808159e-3,3.1680382075e-5,0.0058112205485
0.286000000000000,3.1683172934e-5,0.0058542789298,-3.639731665e-5,-5.664130934e-3,-3.639731665e-5,-5.664130934e-3,3.1709953120e-5,0.0058527669019
0.288000000000000,3.1714390203e-5,0.0058958632312,-3.669233244e-5,-5.704472527e-3,-3.669233244e-5,-5.704472527e-3,3.1742624341e-5,0.0058943397186
0.290000000000000,3.1748764434e-5,0.0059374739648,-3.698438263e-5,-5.744833142e-3,-3.698438263e-5,-5.744833142e-3,3.1778407324e-5,0.0059359390108
0.292000000000000,3.1786304883e-5,0.0059791111438,-3.727346104e-5,-5.785212986e-3,-3.727346104e-5,-5.785212986e-3,3.1817311908e-5,0.0059775647918
0.294000000000000,3.1827019104e-5,0.0060207747825,-3.755956322e-5,-5.825612264e-3,-3.755956322e-5,-5.825612264e-3,3.1859346226e-5,0.0060192170760
0.296000000000000,3.1870912985e-5,0.0060624648965,-3.784268642e-5,-5.866031178e-3,-3.784268642e-5,-5.866031178e-3,3.1904516742e-5,0.0060608958794
0.298000000000000,3.1917990786e-5,0.0061041815027,-3.812282955e-5,-5.906469933e-3,-3.812282955e-5,-5.906469933e-3,3.1952828292e-5,0.0061026012186
0.300000000000000,3.1968255178e-5,0.0061459246189,-3.839999313e-5,-5.946928730e-3,-3.839999313e-5,-5.946928730e-3,3.2004284123e-5,0.0061443331120
0.302000000000000,3.2021707287e-5,0.0061876942645,-3.867417925e-5,-5.987407772e-3,-3.867417925e-5,-5.987407772e-3,3.2058885929e-5,0.0061860915788
0.304000000000000,3.2078346723e-5,0.0062294904600,-3.894539156e-5,-6.027907257e-3,-3.894539156e-5,-6.027907257e-3,3.2116633892e-5,0.0062278766399
0.306000000000000,3.2138171629e-5,0.0062713132273,-3.921363519e-5,-6.068427387e-3,-3.921363519e-5,-6.068427387e-3,3.2177526720e-5,0.0062696883171
0.308000000000000,3.2201178711e-5,0.0063131625896,-3.947891673e-5,-6.108968360e-3,-3.947891673e-5,-6.108968360e-3,3.2241561685e-5,0.0063115266337
0.310000000000000,3.2267363281e-5,0.0063550385713,-3.974124419e-5,-6.149530373e-3,-3.974124419e-5,-6.149530373e-3,3.2308734660e-5,0.0063533916143
0.312000000000000,3.2336719292e-5,0.0063969411982,-4.000062699e-5,-6.190113624e-3,-4.000062699e-5,-6.190113624e-3,3.2379040159e-5,0.0063952832849
0.314000000000000,3.2409239379e-5,0.0064388704976,-4.025707585e-5,-6.230718308e-3,-4.025707585e-5,-6.230718308e-3,3.2452471373e-5,0.0064372016726
0.316000000000000,3.2484914893e-5,0.0064808264980,-4.051060283e-5,-6.271344620e-3,-4.051060283e-5,-6.271344620e-3,3.2529020208e-5,0.0064791468062
0.318000000000000,3.2563735939e-5,0.0065228092293,-4.076122125e-5,-6.311992755e-3,-4.076122125e-5,-6.311992755e-3,3.2608677321e-5,0.0065211187155
0.320000000000000,3.2645691414e-5,0.0065648187227,-4.100894565e-5,-6.352662905e-3,-4.100894565e-5,-6.352662905e-3,3.2691432157e-5,0.0065631174321
0.322000000000000,3.2730769042e-5,0.0066068550111,-4.125379179e-5,-6.393355262e-3,-4.125379179e-5,-6.393355262e-3,3.2777272989e-5,0.0066051429886
0.324000000000000,3.2818955413e-5,0.0066489181284,-4.149577655e-5,-6.434070019e-3,-4.149577655e-5,-6.434070019e-3,3.2866186949e-5,0.0066471954191
0.326000000000000,3.2910236013e-5,0.0066910081103,-4.173491796e-5,-6.474807364e-3,-4.173491796e-5,-6.474807364e-3,3.2958160064e-5,0.0066892747593
0.328000000000000,3.3004595268e-5,0.0067331249935,-4.197123513e-5,-6.515567486e-3,-4.197123513e-5,-6.515567486e-3,3.3053177297e-5,0.0067313810462
0.330000000000000,3.3102016569e-5,0.0067752688165,-4.220474822e-5,-6.556350575e-3,-4.220474822e-5,-6.556350575e-3,3.3151222577e-5,0.0067735143180
0.332000000000000,3.3202482318e-5,0.0068174396190,-4.243547839e-5,-6.597156817e-3,-4.243547839e-5,-6.597156817e-3,3.3252278833e-5,0.0068156746146
0.334000000000000,3.3305973950e-5,0.0068596374422,-4.266344780e-5,-6.637986398e-3,-4.266344780e-5,-6.637986398e-3,3.3356328033e-5,0.0068578619772
0.336000000000000,3.3412471979e-5,0.0069018623288,-4.288867955e-5,-6.678839504e-3,-4.288867955e-5,-6.678839504e-3,3.3463351215e-5,0.0069000764485
0.338000000000000,3.3521956022e-5,0.0069441143228,-4.311119764e-5,-6.719716318e-3,-4.311119764e-5,-6.719716318e-3,3.3573328518e-5,0.0069423180726
0.340000000000000,3.3634404838e-5,0.0069863934698,-4.333102695e-5,-6.760617024e-3,-4.333102695e-5,-6.760617024e-3,3.3686239222e-5,0.0069845868949
0.342000000000000,3.3749796358e-5,0.0070286998167,-4.354819322e-5,-6.801541804e-3,-4.354819322e-5,-6.801541804e-3,3.3802061771e-5,0.0070268829626
0.344000000000000,3.3868107715e-5,0.0070710334119,-4.376272299e-5,-6.842490838e-3,-4.376272299e-5,-6.842490838e-3,3.3920773816e-5,0.0070692063239
0.346000000000000,3.3989315284e-5,0.0071133943052,-4.397464357e-5,-6.883464308e-3,-4.397464357e-5,-6.883464308e-3,3.4042352237e-5,0.0071115570286
0.348000000000000,3.4113394703e-5,0.0071557825479,-4.418398303e-5,-6.924462392e-3,-4.418398303e-5,-6.924462392e-3,3.4166773180e-5,0.0071539351282
0.350000000000000,3.4240320911e-5,0.0071981981927,-4.439077016e-5,-6.965485269e-3,-4.439077016e-5,-6.965485269e-3,3.4294012087e-5,0.0071963406752
0.352000000000000,3.4370068175e-5,0.0072406412939,-4.459503443e-5,-7.006533115e-3,-4.459503443e-5,-7.006533115e-3,3.4424043724e-5,0.0072387737238
0.354000000000000,3.4502610121e-5,0.0072831119070,-4.479680596e-5,-7.047606107e-3,-4.479680596e-5,-7.047606107e-3,3.4556842214e-5,0.0072812343296
0.356000000000000,3.4637919763e-5,0.0073256100889,-4.499611550e-5,-7.088704420e-3,-4.499611550e-5,-7.088704420e-3,3.4692381062e-5,0.0073237225496
0.358000000000000,3.4775969533e-5,0.0073681358983,-4.519299441e-5,-7.129828229e-3,-4.519299441e-5,-7.129828229e-3,3.4830633191e-5,0.0073662384422
0.360000000000000,3.4916731308e-5,0.0074106893950,-4.538747459e-5,-7.170977706e-3,-4.538747459e-5,-7.170977706e-3,3.4971570962e-5,0.0074087820672
0.362000000000000,3.5060176439e-5,0.0074532706403,-4.557958849e-5,-7.212153024e-3,-4.557958849e-5,-7.212153024e-3,3.5115166207e-5,0.0074513534860
0.364000000000000,3.5206275776e-5,0.0074958796969,-4.576936908e-5,-7.253354355e-3,-4.576936908e-5,-7.253354355e-3,3.5261390258e-5,0.0074939527613
0.366000000000000,3.5354999699e-5,0.0075385166290,-4.595684981e-5,-7.294581868e-3,-4.595684981e-5,-7.294581868e-3,3.5410213968e-5,0.0075365799570
0.368000000000000,3.5506318142e-5,0.0075811815021,-4.614206459e-5,-7.335835734e-3,-4.614206459e-5,-7.335835734e-3,3.5561607742e-5,0.0075792351388
0.370000000000000,3.5660200618e-5,0.0076238743833,-4.632504774e-5,-7.377116121e-3,-4.632504774e-5,-7.377116121e-3,3.5715541561e-5,0.0076219183735
0.372000000000000,3.5816616248e-5,0.0076665953407,-4.650583400e-5,-7.418423196e-3,-4.650583400e-5,-7.418423196e-3,3.5871985009e-5,0.0076646297295
0.374000000000000,3.5975533780e-5,0.0077093444443,-4.668445850e-5,-7.459757127e-3,-4.668445850e-5,-7.459757127e-3,3.6030907297e-5,0.0077073692763
0.376000000000000,3.6136921621e-5,0.0077521217651,-4.686095671e-5,-7.501118079e-3,-4.686095671e-5,-7.501118079e-3,3.6192277286e-5,0.0077501370850
0.378000000000000,3.6300747853e-5,0.0077949273756,-4.703536444e-5,-7.542506217e-3,-4.703536444e-5,-7.542506217e-3,3.6356063513e-5,0.0077929332281
0.380000000000000,3.6466980264e-5,0.0078377613497,-4.720771778e-5,-7.583921705e-3,-4.720771778e-5,-7.583921705e-3,3.6522234213e-5,0.0078357577793
0.382000000000000,3.6635586366e-5,0.0078806237626,-4.737805314e-5,-7.625364708e-3,-4.737805314e-5,-7.625364708e-3,3.6690757345e-5,0.0078786108139
0.384000000000000,3.6806533417e-5,0.0079235146909,-4.754640717e-5,-7.666835386e-3,-4.754640717e-5,-7.666835386e-3,3.6861600609e-5,0.0079214924082
0.386000000000000,3.6979788446e-5,0.0079664342125,-4.771281677e-5,-7.708333901e-3,-4.771281677e-5,-7.708333901e-3,3.7034731472e-5,0.0079644026401
0.388000000000000,3.7155318274e-5,0.0080093824066,-4.787731904e-5,-7.749860415e-3,-4.787731904e-5,-7.749860415e-3,3.7210117189e-5,0.0080073415887
0.390000000000000,3.7333089532e-5,0.0080523593539,-4.803995128e-5,-7.791415087e-3,-4.803995128e-5,-7.791415087e-3,3.7387724821e-5,0.0080503093346
0.392000000000000,3.7513068685e-5,0.0080953651362,-4.820075098e-5,-7.832998076e-3,-4.820075098e-5,-7.832998076e-3,3.7567521261e-5,0.0080933059595
0.394000000000000,3.7695222050e-5,0.0081383998367,-4.835975577e-5,-7.874609541e-3,-4.835975577e-5,-7.874609541e-3,3.7749473248e-5,0.0081363315465
0.396000000000000,3.7879515815e-5,0.0081814635399,-4.851700341e-5,-7.916249639e-3,-4.851700341e-5,-7.916249639e-3,3.7933547390e-5,0.0081793861800
0.398000000000000,3.8065916059e-5,0.0082245563316,-4.867253180e-5,-7.957918526e-3,-4.867253180e-5,-7.957918526e-3,3.8119710181e-5,0.0082224699456
0.400000000000000,3.8254388771e-5,0.0082676782988,-4.882637889e-5,-7.999616359e-3,-4.882637889e-5,-7.999616359e-3,3.8307928022e-5,0.0082655829304
0.402000000000000,3.8444899868e-5,0.0083108295299,-4.897858277e-5,-8.041343293e-3,-4.897858277e-5,-8.041343293e-3,3.8498167236e-5,0.0083087252224
0.404000000000000,3.8637415209e-5,0.0083540101144,-4.912918153e-5,-8.083099482e-3,-4.912918153e-5,-8.083099482e-3,3.8690394088e-5,0.0083518969111
0.406000000000000,3.8831900618e-5,0.0083972201431,-4.927821335e-5,-8.124885081e-3,-4.927821335e-5,-8.124885081e-3,3.8884574802e-5,0.0083950980872
0.408000000000000,3.9028321896e-5,0.0084404597080,-4.942571640e-5,-8.166700242e-3,-4.942571640e-5,-8.166700242e-3,3.9080675574e-5,0.0084383288427
0.410000000000000,3.9226644840e-5,0.0084837289025,-4.957172889e-5,-8.208545117e-3,-4.957172889e-5,-8.208545117e-3,3.9278662595e-5,0.0084815892707
0.412000000000000,3.9426835254e-5,0.0085270278210,-4.971628900e-5,-8.250419859e-3,-4.971628900e-5,-8.250419859e-3,3.9478502058e-5,0.0085248794654
0.414000000000000,3.9628858973e-5,0.0085703565592,-4.985943491e-5,-8.292324618e-3,-4.985943491e-5,-8.292324618e-3,3.9680160182e-5,0.0085681995225
0.416000000000000,3.9832681869e-5,0.0086137152139,-5.000120473e-5,-8.334259544e-3,-5.000120473e-5,-8.334259544e-3,3.9883603220e-5,0.0086115495387
0.418000000000000,4.0038269869e-5,0.0086571038833,-5.014163656e-5,-8.376224789e-3,-5.014163656e-5,-8.376224789e-3,4.0088797477e-5,0.0086549296119
0.420000000000000,4.0245588970e-5,0.0087005226664,-5.028076840e-5,-8.418220500e-3,-5.028076840e-5,-8.418220500e-3,4.0295709324e-5,0.0086983398411
0.422000000000000,4.0454605251e-5,0.0087439716637,-5.041863820e-5,-8.460246826e-3,-5.041863820e-5,-8.460246826e-3,4.0504305210e-5,0.0087417803265
0.424000000000000,4.0665284887e-5,0.0087874509767,-5.055528378e-5,-8.502303915e-3,-5.055528378e-5,-8.502303915e-3,4.0714551674e-5,0.0087852511696
0.426000000000000,4.0877594160e-5,0.0088309607079,-5.069074290e-5,-8.544391915e-3,-5.069074290e-5,-8.544391915e-3,4.0926415362e-5,0.0088287524728
0.428000000000000,4.1091499473e-5,0.0088745009613,-5.082505315e-5,-8.586510972e-3,-5.082505315e-5,-8.586510972e-3,4.1139863035e-5,0.0088722843397
0.430000000000000,4.1306967362e-5,0.0089180718415,-5.095825205e-5,-8.628661232e-3,-5.095825205e-5,-8.628661232e-3,4.1354861584e-5,0.0089158468750
0.432000000000000,4.1523964506e-5,0.0089616734547,-5.109037692e-5,-8.670842842e-3,-5.109037692e-5,-8.670842842e-3,4.1571378039e-5,0.0089594401845
0.434000000000000,4.1742457739e-5,0.0090053059077,-5.122146496e-5,-8.713055946e-3,-5.122146496e-5,-8.713055946e-3,4.1789379580e-5,0.0090030643751
0.436000000000000,4.1962414060e-5,0.0090489693089,-5.135155320e-5,-8.755300690e-3,-5.135155320e-5,-8.755300690e-3,4.2008833550e-5,0.0090467195548
0.438000000000000,4.2183800645e-5,0.0090926637672,-5.148067850e-5,-8.797577216e-3,-5.148067850e-5,-8.797577216e-3,4.2229707466e-5,0.0090904058326
0.440000000000000,4.2406584855e-5,0.0091363893930,-5.160887753e-5,-8.839885670e-3,-5.160887753e-5,-8.839885670e-3,4.2451969023e-5,0.0091341233185
0.442000000000000,4.2630734246e-5,0.0091801462976,-5.173618675e-5,-8.882226194e-3,-5.173618675e-5,-8.882226194e-3,4.2675586112e-5,0.0091778721236
0.444000000000000,4.2856216580e-5,0.0092239345932,-5.186264246e-5,-8.924598932e-3,-5.186264246e-5,-8.924598932e-3,4.2900526820e-5,0.0092216523601
0.446000000000000,4.3082999831e-5,0.0092677543931,-5.198828069e-5,-8.967004024e-3,-5.198828069e-5,-8.967004024e-3,4.3126759449e-5,0.0092654641412
0.448000000000000,4.3311052195e-5,0.0093116058117,-5.211313730e-5,-9.009441615e-3,-5.211313730e-5,-9.009441615e-3,4.3354252515e-5,0.0093093075809
0.450000000000000,4.3540342099e-5,0.0093554889642,-5.223724789e-5,-9.051911844e-3,-5.223724789e-5,-9.051911844e-3,4.3582974762e-5,0.0093531827943
0.452000000000000,4.3770838206e-5,0.0093994039670,-5.236064783e-5,-9.094414854e-3,-5.236064783e-5,-9.094414854e-3,4.3812895168e-5,0.0093970898977
0.454000000000000,4.4002509427e-5,0.0094433509374,-5.248337226e-5,-9.136950784e-3,-5.248337226e-5,-9.136950784e-3,4.4043982954e-5,0.0094410290081
0.456000000000000,4.4235324924e-5,0.0094873299934,-5.260545604e-5,-9.179519776e-3,-5.260545604e-5,-9.179519776e-3,4.4276207588e-5,0.0094850002436
0.458000000000000,4.4469254118e-5,0.0095313412544,-5.272693379e-5,-9.222121970e-3,-5.272693379e-5,-9.222121970e-3,4.4509538795e-5,0.0095290037230
0.460000000000000,4.4704266696e-5,0.0095753848405,-5.284783986e-5,-9.264757505e-3,-5.284783986e-5,-9.264757505e-3,4.4743946560e-5,0.0095730395664
0.462000000000000,4.4940332618e-5,0.0096194608725,-5.296820833e-5,-9.307426521e-3,-5.296820833e-5,-9.307426521e-3,4.4979401141e-5,0.0096171078946
0.464000000000000,4.5177422121e-5,0.0096635694726,-5.308807300e-5,-9.350129157e-3,-5.308807300e-5,-9.350129157e-3,4.5215873066e-5,0.0096612088294
0.466000000000000,4.5415505726e-5,0.0097077107635,-5.320746737e-5,-9.392865552e-3,-5.320746737e-5,-9.392865552e-3,4.5453333146e-5,0.0097053424933
0.468000000000000,4.5654554244e-5,0.0097518848690,-5.332642468e-5,-9.435635844e-3,-5.332642468e-5,-9.435635844e-3,4.5691752475e-5,0.0097495090101
0.470000000000000,4.5894538778e-5,0.0097960919137,-5.344497786e-5,-9.478440172e-3,-5.344497786e-5,-9.478440172e-3,4.5931102440e-5,0.0097937085040
0.472000000000000,4.6135430732e-5,0.0098403320231,-5.356315954e-5,-9.521278674e-3,-5.356315954e-5,-9.521278674e-3,4.6171354723e-5,0.0098379411005
0.474000000000000,4.6377201813e-5,0.0098846053237,-5.368100205e-5,-9.564151487e-3,-5.368100205e-5,-9.564151487e-3,4.6412481304e-5,0.0098822069257
0.476000000000000,4.6619824034e-5,0.0099289119425,-5.379853740e-5,-9.607058750e-3,-5.379853740e-5,-9.607058750e-3,4.6654454469e-5,0.0099265061066
0.478000000000000,4.6863269721e-5,0.0099732520076,-5.391579730e-5,-9.650000599e-3,-5.391579730e-5,-9.650000599e-3,4.6897246812e-5,0.0099708387711
0.480000000000000,4.7107511516e-5,0.0100176256480,-5.403281314e-5,-9.692977173e-3,-5.403281314e-5,-9.692977173e-3,4.7140831238e-5,0.0100152050478
0.482000000000000,4.7352522379e-5,0.0100620329933,-5.414961600e-5,-9.735988607e-3,-5.414961600e-5,-9.735988607e-3,4.7385180970e-5,0.0100596050663
0.484000000000000,4.7598275592e-5,0.0101064741741,-5.426623662e-5,-9.779035039e-3,-5.426623662e-5,-9.779035039e-3,4.7630269546e-5,0.0101040389569
0.486000000000000,4.7844744763e-5,0.0101509493216,-5.438270542e-5,-9.822116606e-3,-5.438270542e-5,-9.822116606e-3,4.7876070830e-5,0.0101485068508
0.488000000000000,4.8091903827e-5,0.0101954585680,-5.449905249e-5,-9.865233443e-3,-5.449905249e-5,-9.865233443e-3,4.8122559008e-5,0.0101930088797
0.490000000000000,4.8339727052e-5,0.0102400020462,-5.461530759e-5,-9.908385689e-3,-5.461530759e-5,-9.908385689e-3,4.8369708593e-5,0.0102375451765
0.492000000000000,4.8588189036e-5,0.0102845798899,-5.473150016e-5,-9.951573478e-3,-5.473150016e-5,-9.951573478e-3,4.8617494431e-5,0.0102821158746
0.494000000000000,4.8837264714e-5,0.0103291922334,-5.484765927e-5,-9.994796947e-3,-5.484765927e-5,-9.994796947e-3,4.8865891696e-5,0.0103267211082
0.496000000000000,4.9086929359e-5,0.0103738392119,-5.496381369e-5,-0.010038056233,-5.496381369e-5,-0.010038056233,4.9114875898e-5,0.0103713610124
0.498000000000000,4.9337158580e-5,0.0104185209615,-5.507999181e-5,-0.010081351471,-5.507999181e-5,-0.010081351471,4.9364422883e-5,0.0104160357227
0.500000000000000,4.9587928329e-5,0.0104632376187,-5.519622172e-5,-0.010124682797,-5.519622172e-5,-0.010124682797,4.9614508834e-5,0.0104607453758
0.502000000000000,4.9839214899e-5,0.0105079893209,-5.531253114e-5,-0.010168050347,-5.531253114e-5,-0.010168050347,4.9865110271e-5,0.0105054901088
0.504000000000000,5.0090994926e-5,0.0105527762064,-5.542894744e-5,-0.010211454258,-5.542894744e-5,-0.010211454258,5.0116204056e-5,0.0105502700595
0.506000000000000,5.0343245391e-5,0.0105975984138,-5.554549767e-5,-0.010254894665,-5.554549767e-5,-0.010254894665,5.0367767391e-5,0.0105950853668
0.508000000000000,5.0595943620e-5,0.0106424560827,-5.566220852e-5,-0.010298371703,-5.566220852e-5,-0.010298371703,5.0619777820e-5,0.0106399361697
0.510000000000000,5.0849067282e-5,0.0106873493534,-5.577910633e-5,-0.010341885510,-5.577910633e-5,-0.010341885510,5.0872213230e-5,0.0106848226085
0.512000000000000,5.1102594395e-5,0.0107322783667,-5.589621709e-5,-0.010385436219,-5.589621709e-5,-0.010385436219,5.1125051851e-5,0.0107297448237
0.514000000000000,5.1356503322e-5,0.0107772432643,-5.601356646e-5,-0.010429023969,-5.601356646e-5,-0.010429023969,5.1378272255e-5,0.0107747029569
0.516000000000000,5.1610772775e-5,0.0108222441884,-5.613117973e-5,-0.010472648893,-5.613117973e-5,-0.010472648893,5.1631853359e-5,0.0108196971499
0.518000000000000,5.1865381810e-5,0.0108672812820,-5.624908185e-5,-0.010516311129,-5.624908185e-5,-0.010516311129,5.1885774425e-5,0.0108647275456
0.520000000000000,5.2120309831e-5,0.0109123546885,-5.636729744e-5,-0.010560010812,-5.636729744e-5,-0.010560010812,5.2140015056e-5,0.0109097942873
