R 50.00000
Frequency (GHz),RE[Y11],IM[Y11],RE[Y12],IM[Y12],RE[Y21],IM[Y21],RE[Y22],IM[Y22]
0.250000000000000,3.1659994438e-5,0.0051135832126,-3.061475111e-5,-4.943612683e-3,-3.061475111e-5,-4.943612683e-3,3.1644485606e-5,0.0051110414547
0.252000000000000,3.1638307617e-5,0.0051547196644,-3.096015464e-5,-4.983669215e-3,-3.096015464e-5,-4.983669215e-3,3.1624611335e-5,0.0051521560080
0.254000000000000,3.1619274281e-5,0.0051958825130,-3.130304077e-5,-5.023740986e-3,-3.130304077e-5,-5.023740986e-3,3.1607347264e-5,0.0051932969874
0.256000000000000,3.1602941018e-5,0.0052370717556,-3.164336542e-5,-5.063828211e-3,-3.164336542e-5,-5.063828211e-3,3.1592740442e-5,0.0052344643901
0.258000000000000,3.1589352029e-5,0.0052782873899,-3.198108692e-5,-5.103931105e-3,-3.198108692e-5,-5.103931105e-3,3.1580835533e-5,0.0052756582142
0.260000000000000,3.1578549162e-5,0.0053195294142,-3.231616600e-5,-5.144049882e-3,-3.231616600e-5,-5.144049882e-3,3.1571674847e-5,0.0053168784581
0.262000000000000,3.1570571951e-5,0.0053607978276,-3.264856576e-5,-5.184184758e-3,-3.264856576e-5,-5.184184758e-3,3.1565298376e-5,0.0053581251210
0.264000000000000,3.1565457646e-5,0.0054020926296,-3.297825161e-5,-5.224335945e-3,-3.297825161e-5,-5.224335945e-3,3.1561743832e-5,0.0053993982028
0.266000000000000,3.1563241256e-5,0.0054434138209,-3.330519123e-5,-5.264503658e-3,-3.330519123e-5,-5.264503658e-3,3.1561046683e-5,0.0054406977041
0.268000000000000,3.1563955581e-5,0.0054847614026,-3.362935458e-5,-5.304688110e-3,-3.362935458e-5,-5.304688110e-3,3.1563240186e-5,0.0054820236264
0.270000000000000,3.1567631250e-5,0.0055261353768,-3.395071379e-5,-5.344889513e-3,-3.395071379e-5,-5.344889513e-3,3.1568355429e-5,0.0055233759717
0.272000000000000,3.1574296760e-5,0.0055675357464,-3.426924319e-5,-5.385108080e-3,-3.426924319e-5,-5.385108080e-3,3.1576421364e-5,0.0055647547433
0.274000000000000,3.1583978511e-5,0.0056089625152,-3.458491922e-5,-5.425344023e-3,-3.458491922e-5,-5.425344023e-3,3.1587464848e-5,0.0056061599449
0.276000000000000,3.1596700850e-5,0.0056504156879,-3.489772042e-5,-5.465597553e-3,-3.489772042e-5,-5.465597553e-3,3.1601510681e-5,0.0056475915816
0.278000000000000,3.1612486101e-5,0.0056918952702,-3.520762739e-5,-5.505868881e-3,-3.520762739e-5,-5.505868881e-3,3.1618581642e-5,0.0056890496591
0.280000000000000,3.1631354611e-5,0.0057334012689,-3.551462274e-5,-5.546158216e-3,-3.551462274e-5,-5.546158216e-3,3.1638698528e-5,0.0057305341843
0.282000000000000,3.1653324784e-5,0.0057749336916,-3.581869105e-5,-5.586465768e-3,-3.581869105e-5,-5.586465768e-3,3.1661880195e-5,0.0057720451649
0.284000000000000,3.1678413122e-5,0.0058164925471,-3.611981885e-5,-5.626791746e-3,-3.611981885e-5,-5.626791746e-3,3.1688143593e-5,0.0058135826100
0.286000000000000,3.1706634263e-5,0.0058580778453,-3.641799455e-5,-5.667136357e-3,-3.641799455e-5,-5.667136357e-3,3.1717503811e-5,0.0058551465293
0.288000000000000,3.1738001023e-5,0.0058996895970,-3.671320842e-5,-5.707499809e-3,-3.671320842e-5,-5.707499809e-3,3.1749974108e-5,0.0058967369340
0.290000000000000,3.1772524430e-5,0.0059413278145,-3.700545255e-5,-5.747882309e-3,-3.700545255e-5,-5.747882309e-3,3.1785565959e-5,0.0059383538363
0.292000000000000,3.1810213767e-5,0.0059829925109,-3.729472082e-5,-5.788284062e-3,-3.729472082e-5,-5.788284062e-3,3.1824289091e-5,0.0059799972495
0.294000000000000,3.1851076611e-5,0.0060246837007,-3.758100881e-5,-5.828705274e-3,-3.758100881e-5,-5.828705274e-3,3.1866151521e-5,0.0060216671880
0.296000000000000,3.1895118869e-5,0.0060664013994,-3.786431384e-5,-5.869146147e-3,-3.786431384e-5,-5.869146147e-3,3.1911159599e-5,0.0060633636677
0.298000000000000,3.1942344823e-5,0.0061081456240,-3.814463486e-5,-5.909606887e-3,-3.814463486e-5,-5.909606887e-3,3.1959318043e-5,0.0061050867055
0.300000000000000,3.1992757161e-5,0.0061499163925,-3.842197244e-5,-5.950087695e-3,-3.842197244e-5,-5.950087695e-3,3.2010629980e-5,0.0061468363194
0.302000000000000,3.2046357023e-5,0.0061917137243,-3.869632874e-5,-5.990588773e-3,-3.869632874e-5,-5.990588773e-3,3.2065096983e-5,0.0061886125290
0.304000000000000,3.2103144036e-5,0.0062335376400,-3.896770746e-5,-6.031110322e-3,-3.896770746e-5,-6.031110322e-3,3.2122719113e-5,0.0062304153549
0.306000000000000,3.2163116353e-5,0.0062753881616,-3.923611378e-5,-6.071652542e-3,-3.923611378e-5,-6.071652542e-3,3.2183494955e-5,0.0062722448191
0.308000000000000,3.2226270692e-5,0.0063172653123,-3.950155437e-5,-6.112215631e-3,-3.950155437e-5,-6.112215631e-3,3.2247421657e-5,0.0063141009449
0.310000000000000,3.2292602375e-5,0.0063591691166,-3.976403729e-5,-6.152799788e-3,-3.976403729e-5,-6.152799788e-3,3.2314494966e-5,0.0063559837570
0.312000000000000,3.2362105364e-5,0.0064010996006,-4.002357201e-5,-6.193405209e-3,-4.002357201e-5,-6.193405209e-3,3.2384709272e-5,0.0063978932812
0.314000000000000,3.2434772298e-5,0.0064430567914,-4.028016934e-5,-6.234032091e-3,-4.028016934e-5,-6.234032091e-3,3.2458057637e-5,0.0064398295450
0.316000000000000,3.2510594537e-5,0.0064850407177,-4.053384138e-5,-6.274680630e-3,-4.053384138e-5,-6.274680630e-3,3.2534531840e-5,0.0064817925769
0.318000000000000,3.2589562188e-5,0.0065270514095,-4.078460152e-5,-6.315351019e-3,-4.078460152e-5,-6.315351019e-3,3.2614122411e-5,0.0065237824070
0.320000000000000,3.2671664154e-5,0.0065690888982,-4.103246438e-5,-6.356043452e-3,-4.103246438e-5,-6.356043452e-3,3.2696818667e-5,0.0065657990667
0.322000000000000,3.2756888160e-5,0.0066111532166,-4.127744576e-5,-6.396758121e-3,-4.127744576e-5,-6.396758121e-3,3.2782608749e-5,0.0066078425889
0.324000000000000,3.2845220796e-5,0.0066532443989,-4.151956264e-5,-6.437495217e-3,-4.151956264e-5,-6.437495217e-3,3.2871479662e-5,0.0066499130077
0.326000000000000,3.2936647553e-5,0.0066953624807,-4.175883310e-5,-6.478254930e-3,-4.175883310e-5,-6.478254930e-3,3.2963417304e-5,0.0066920103588
0.328000000000000,3.3031152852e-5,0.0067375074990,-4.199527632e-5,-6.519037451e-3,-4.199527632e-5,-6.519037451e-3,3.3058406506e-5,0.0067341346791
0.330000000000000,3.3128720086e-5,0.0067796794924,-4.222891252e-5,-6.559842968e-3,-4.222891252e-5,-6.559842968e-3,3.3156431067e-5,0.0067762860072
0.332000000000000,3.3229331654e-5,0.0068218785006,-4.245976295e-5,-6.600671667e-3,-4.245976295e-5,-6.600671667e-3,3.3257473789e-5,0.0068184643830
0.334000000000000,3.3332968989e-5,0.0068641045650,-4.268784983e-5,-6.641523735e-3,-4.268784983e-5,-6.641523735e-3,3.3361516507e-5,0.0068606698477
0.336000000000000,3.3439612602e-5,0.0069063577283,-4.291319632e-5,-6.682399358e-3,-4.291319632e-5,-6.682399358e-3,3.3468540130e-5,0.0069029024440
0.338000000000000,3.3549242105e-5,0.0069486380347,-4.313582650e-5,-6.723298719e-3,-4.313582650e-5,-6.723298719e-3,3.3578524669e-5,0.0069451622163
0.340000000000000,3.3661836255e-5,0.0069909455299,-4.335576532e-5,-6.764222003e-3,-4.335576532e-5,-6.764222003e-3,3.3691449271e-5,0.0069874492099
0.342000000000000,3.3777372976e-5,0.0070332802610,-4.357303859e-5,-6.805169392e-3,-4.357303859e-5,-6.805169392e-3,3.3807292255e-5,0.0070297634722
0.344000000000000,3.3895829399e-5,0.0070756422764,-4.378767291e-5,-6.846141066e-3,-4.378767291e-5,-6.846141066e-3,3.3926031140e-5,0.0070721050514
0.346000000000000,3.4017181890e-5,0.0071180316261,-4.399969568e-5,-6.887137207e-3,-4.399969568e-5,-6.887137207e-3,3.4047642678e-5,0.0071144739975
0.348000000000000,3.4141406084e-5,0.0071604483616,-4.420913502e-5,-6.928157993e-3,-4.420913502e-5,-6.928157993e-3,3.4172102889e-5,0.0071568703620
0.350000000000000,3.4268476912e-5,0.0072028925356,-4.441601981e-5,-6.969203603e-3,-4.441601981e-5,-6.969203603e-3,3.4299387087e-5,0.0071992941977
0.352000000000000,3.4398368636e-5,0.0072453642025,-4.462037958e-5,-7.010274215e-3,-4.462037958e-5,-7.010274215e-3,3.4429469910e-5,0.0072417455587
0.354000000000000,3.4531054875e-5,0.0072878634180,-4.482224451e-5,-7.051370005e-3,-4.482224451e-5,-7.051370005e-3,3.4562325355e-5,0.0072842245008
0.356000000000000,3.4666508637e-5,0.0073303902393,-4.502164544e-5,-7.092491148e-3,-4.502164544e-5,-7.092491148e-3,3.4697926804e-5,0.0073267310811
0.358000000000000,3.4804702346e-5,0.0073729447250,-4.521861377e-5,-7.133637819e-3,-4.521861377e-5,-7.133637819e-3,3.4836247052e-5,0.0073692653581
0.360000000000000,3.4945607872e-5,0.0074155269351,-4.541318150e-5,-7.174810191e-3,-4.541318150e-5,-7.174810191e-3,3.4977258339e-5,0.0074118273919
0.362000000000000,3.5089196558e-5,0.0074581369311,-4.560538114e-5,-7.216008436e-3,-4.560538114e-5,-7.216008436e-3,3.5120932374e-5,0.0074544172438
0.364000000000000,3.5235439250e-5,0.0075007747759,-4.579524572e-5,-7.257232728e-3,-4.579524572e-5,-7.257232728e-3,3.5267240364e-5,0.0074970349766
0.366000000000000,3.5384306318e-5,0.0075434405336,-4.598280876e-5,-7.298483235e-3,-4.598280876e-5,-7.298483235e-3,3.5416153042e-5,0.0075396806546
0.368000000000000,3.5535767691e-5,0.0075861342701,-4.616810423e-5,-7.339760128e-3,-4.616810423e-5,-7.339760128e-3,3.5567640694e-5,0.0075823543434
0.370000000000000,3.5689792873e-5,0.0076288560525,-4.635116653e-5,-7.381063575e-3,-4.635116653e-5,-7.381063575e-3,3.5721673182e-5,0.0076250561100
0.372000000000000,3.5846350979e-5,0.0076716059492,-4.653203046e-5,-7.422393745e-3,-4.653203046e-5,-7.422393745e-3,3.5878219970e-5,0.0076677860229
0.374000000000000,3.6005410750e-5,0.0077143840302,-4.671073122e-5,-7.463750804e-3,-4.671073122e-5,-7.463750804e-3,3.6037250152e-5,0.0077105441518
0.376000000000000,3.6166940586e-5,0.0077571903667,-4.688730434e-5,-7.505134918e-3,-4.688730434e-5,-7.505134918e-3,3.6198732473e-5,0.0077533305681
0.378000000000000,3.6330908564e-5,0.0078000250314,-4.706178568e-5,-7.546546254e-3,-4.706178568e-5,-7.546546254e-3,3.6362635357e-5,0.0077961453441
0.380000000000000,3.6497282463e-5,0.0078428880983,-4.723421142e-5,-7.587984973e-3,-4.723421142e-5,-7.587984973e-3,3.6528926924e-5,0.0078389885540
0.382000000000000,3.6666029790e-5,0.0078857796428,-4.740461802e-5,-7.629451242e-3,-4.740461802e-5,-7.629451242e-3,3.6697575019e-5,0.0078818602730
0.384000000000000,3.6837117797e-5,0.0079286997416,-4.757304220e-5,-7.670945221e-3,-4.757304220e-5,-7.670945221e-3,3.6868547233e-5,0.0079247605776
0.386000000000000,3.7010513508e-5,0.0079716484729,-4.773952090e-5,-7.712467072e-3,-4.773952090e-5,-7.712467072e-3,3.7041810921e-5,0.0079676895460
0.388000000000000,3.7186183736e-5,0.0080146259159,-4.790409130e-5,-7.754016957e-3,-4.790409130e-5,-7.754016957e-3,3.7217333230e-5,0.0080106472574
0.390000000000000,3.7364095110e-5,0.0080576321515,-4.806679075e-5,-7.795595036e-3,-4.806679075e-5,-7.795595036e-3,3.7395081114e-5,0.0080536337925
0.392000000000000,3.7544214087e-5,0.0081006672618,-4.822765681e-5,-7.837201467e-3,-4.822765681e-5,-7.837201467e-3,3.7575021359e-5,0.0080966492332
0.394000000000000,3.7726506981e-5,0.0081437313300,-4.838672715e-5,-7.878836410e-3,-4.838672715e-5,-7.878836410e-3,3.7757120598e-5,0.0081396936628
0.396000000000000,3.7910939975e-5,0.0081868244409,-4.854403961e-5,-7.920500022e-3,-4.854403961e-5,-7.920500022e-3,3.7941345336e-5,0.0081827671658
0.398000000000000,3.8097479144e-5,0.0082299466803,-4.869963212e-5,-7.962192459e-3,-4.869963212e-5,-7.962192459e-3,3.8127661966e-5,0.0082258698280
0.400000000000000,3.8286090473e-5,0.0082730981356,-4.885354272e-5,-8.003913878e-3,-4.885354272e-5,-8.003913878e-3,3.8316036787e-5,0.0082690017367
0.402000000000000,3.8476739875e-5,0.0083162788952,-4.900580952e-5,-8.045664435e-3,-4.900580952e-5,-8.045664435e-3,3.8506436023e-5,0.0083121629801
0.404000000000000,3.8669393208e-5,0.0083594890488,-4.915647068e-5,-8.087444284e-3,-4.915647068e-5,-8.087444284e-3,3.8698825841e-5,0.0083553536478
0.406000000000000,3.8864016291e-5,0.0084027286874,-4.930556443e-5,-8.129253579e-3,-4.930556443e-5,-8.129253579e-3,3.8893172367e-5,0.0083985738308
0.408000000000000,3.9060574923e-5,0.0084459979033,-4.945312900e-5,-8.171092473e-3,-4.945312900e-5,-8.171092473e-3,3.9089441703e-5,0.0084418236211
0.410000000000000,3.9259034899e-5,0.0084892967899,-4.959920264e-5,-8.212961119e-3,-4.959920264e-5,-8.212961119e-3,3.9287599945e-5,0.0084851031121
0.412000000000000,3.9459362024e-5,0.0085326254418,-4.974382359e-5,-8.254859668e-3,-4.974382359e-5,-8.254859668e-3,3.9487613194e-5,0.0085284123983
0.414000000000000,3.9661522128e-5,0.0085759839550,-4.988703007e-5,-8.296788273e-3,-4.988703007e-5,-8.296788273e-3,3.9689447578e-5,0.0085717515754
0.416000000000000,3.9865481084e-5,0.0086193724264,-5.002886024e-5,-8.338747082e-3,-5.002886024e-5,-8.338747082e-3,3.9893069261e-5,0.0086151207404
0.418000000000000,4.0071204819e-5,0.0086627909542,-5.016935225e-5,-8.380736248e-3,-5.016935225e-5,-8.380736248e-3,4.0098444459e-5,0.0086585199913
0.420000000000000,4.0278659329e-5,0.0087062396380,-5.030854416e-5,-8.422755918e-3,-5.030854416e-5,-8.422755918e-3,4.0305539457e-5,0.0087019494273
0.422000000000000,4.0487810693e-5,0.0087497185782,-5.044647393e-5,-8.464806241e-3,-5.044647393e-5,-8.464806241e-3,4.0514320617e-5,0.0087454091490
0.424000000000000,4.0698625088e-5,0.0087932278764,-5.058317946e-5,-8.506887366e-3,-5.058317946e-5,-8.506887366e-3,4.0724754397e-5,0.0087888992578
0.426000000000000,4.0911068796e-5,0.0088367676357,-5.071869853e-5,-8.548999440e-3,-5.071869853e-5,-8.548999440e-3,4.0936807359e-5,0.0088324198565
0.428000000000000,4.1125108223e-5,0.0088803379598,-5.085306879e-5,-8.591142609e-3,-5.085306879e-5,-8.591142609e-3,4.1150446183e-5,0.0088759710488
0.430000000000000,4.1340709905e-5,0.0089239389538,-5.098632778e-5,-8.633317022e-3,-5.098632778e-5,-8.633317022e-3,4.1365637680e-5,0.0089195529397
0.432000000000000,4.1557840525e-5,0.0089675707239,-5.111851289e-5,-8.675522822e-3,-5.111851289e-5,-8.675522822e-3,4.1582348803e-5,0.0089631656351
0.434000000000000,4.1776466919e-5,0.0090112333774,-5.124966134e-5,-8.717760156e-3,-5.124966134e-5,-8.717760156e-3,4.1800546655e-5,0.0090068092422
0.436000000000000,4.1996556089e-5,0.0090549270225,-5.137981021e-5,-8.760029169e-3,-5.137981021e-5,-8.760029169e-3,4.2020198505e-5,0.0090504838691
0.438000000000000,4.2218075216e-5,0.0090986517686,-5.150899638e-5,-8.802330005e-3,-5.150899638e-5,-8.802330005e-3,4.2241271795e-5,0.0090941896250
0.440000000000000,4.2440991663e-5,0.0091424077261,-5.163725657e-5,-8.844662808e-3,-5.163725657e-5,-8.844662808e-3,4.2463734149e-5,0.0091379266203
0.442000000000000,4.2665272992e-5,0.0091861950065,-5.176462728e-5,-8.887027720e-3,-5.176462728e-5,-8.887027720e-3,4.2687553384e-5,0.0091816949662
0.444000000000000,4.2890886968e-5,0.0092300137224,-5.189114483e-5,-8.929424886e-3,-5.189114483e-5,-8.929424886e-3,4.2912697523e-5,0.0092254947750
0.446000000000000,4.3117801572e-5,0.0092738639871,-5.201684531e-5,-8.971854448e-3,-5.201684531e-5,-8.971854448e-3,4.3139134795e-5,0.0092693261602
0.448000000000000,4.3345985004e-5,0.0093177459153,-5.214176459e-5,-9.014316548e-3,-5.214176459e-5,-9.014316548e-3,4.3366833652e-5,0.0093131892361
0.450000000000000,4.3575405699e-5,0.0093616596223,-5.226593831e-5,-9.056811327e-3,-5.226593831e-5,-9.056811327e-3,4.3595762772e-5,0.0093570841180
0.452000000000000,4.3806032325e-5,0.0094056052248,-5.238940187e-5,-9.099338928e-3,-5.238940187e-5,-9.099338928e-3,4.3825891071e-5,0.0094010109223
0.454000000000000,4.4037833799e-5,0.0094495828402,-5.251219044e-5,-9.141899490e-3,-5.251219044e-5,-9.141899490e-3,4.4057187705e-5,0.0094449697662
0.456000000000000,4.4270779291e-5,0.0094935925869,-5.263433892e-5,-9.184493155e-3,-5.263433892e-5,-9.184493155e-3,4.4289622082e-5,0.0094889607681
0.458000000000000,4.4504838229e-5,0.0095376345843,-5.275588194e-5,-9.227120063e-3,-5.275588194e-5,-9.227120063e-3,4.4523163867e-5,0.0095329840471
0.460000000000000,4.4739980308e-5,0.0095817089527,-5.287685390e-5,-9.269780354e-3,-5.287685390e-5,-9.269780354e-3,4.4757782988e-5,0.0095770397234
0.462000000000000,4.4976175496e-5,0.0096258158132,-5.299728889e-5,-9.312474167e-3,-5.299728889e-5,-9.312474167e-3,4.4993449645e-5,0.0096211279180
0.464000000000000,4.5213394038e-5,0.0096699552882,-5.311722074e-5,-9.355201643e-3,-5.311722074e-5,-9.355201643e-3,4.5230134311e-5,0.0096652487530
0.466000000000000,4.5451606466e-5,0.0097141275006,-5.323668299e-5,-9.397962918e-3,-5.323668299e-5,-9.397962918e-3,4.5467807741e-5,0.0097094023512
0.468000000000000,4.5690783597e-5,0.0097583325743,-5.335570888e-5,-9.440758134e-3,-5.335570888e-5,-9.440758134e-3,4.5706440978e-5,0.0097535888364
0.470000000000000,4.5930896547e-5,0.0098025706343,-5.347433138e-5,-9.483587428e-3,-5.347433138e-5,-9.483587428e-3,4.5946005357e-5,0.0097978083333
0.472000000000000,4.6171916726e-5,0.0098468418062,-5.359258314e-5,-9.526450937e-3,-5.359258314e-5,-9.526450937e-3,4.6186472509e-5,0.0098420609673
0.474000000000000,4.6413815853e-5,0.0098911462165,-5.371049651e-5,-9.569348802e-3,-5.371049651e-5,-9.569348802e-3,4.6427814365e-5,0.0098863468650
0.476000000000000,4.6656565952e-5,0.0099354839928,-5.382810352e-5,-9.612281158e-3,-5.382810352e-5,-9.612281158e-3,4.6670003164e-5,0.0099306661536
0.478000000000000,4.6900139359e-5,0.0099798552633,-5.394543592e-5,-9.655248144e-3,-5.394543592e-5,-9.655248144e-3,4.6913011451e-5,0.0099750189611
0.480000000000000,4.7144508727e-5,0.0100242601570,-5.406252509e-5,-9.698249898e-3,-5.406252509e-5,-9.698249898e-3,4.7156812089e-5,0.0100194054164
0.482000000000000,4.7389647027e-5,0.0100686988039,-5.417940215e-5,-9.741286555e-3,-5.417940215e-5,-9.741286555e-3,4.7401378254e-5,0.0100638256494
0.484000000000000,4.7635527554e-5,0.0101131713348,-5.429609784e-5,-9.784358254e-3,-5.429609784e-5,-9.784358254e-3,4.7646683442e-5,0.0101082797905
0.486000000000000,4.7882123925e-5,0.0101576778810,-5.441264261e-5,-9.827465132e-3,-5.441264261e-5,-9.827465132e-3,4.7892701476e-5,0.0101527679711
0.488000000000000,4.8129410091e-5,0.0102022185751,-5.452906658e-5,-9.870607324e-3,-5.452906658e-5,-9.870607324e-3,4.8139406499e-5,0.0101972903234
0.490000000000000,4.8377360328e-5,0.0102467935500,-5.464539951e-5,-9.913784968e-3,-5.464539951e-5,-9.913784968e-3,4.8386772988e-5,0.0102418469803
0.492000000000000,4.8625949250e-5,0.0102914029397,-5.476167084e-5,-9.956998200e-3,-5.476167084e-5,-9.956998200e-3,4.8634775748e-5,0.0102864380754
0.494000000000000,4.8875151803e-5,0.0103360468788,-5.487790969e-5,-0.010000247157,-5.487790969e-5,-0.010000247157,4.8883389917e-5,0.0103310637434
0.496000000000000,4.9124943273e-5,0.0103807255027,-5.499414481e-5,-0.010043531975,-5.499414481e-5,-0.010043531975,4.9132590968e-5,0.0103757241193
0.498000000000000,4.9375299284e-5,0.0104254389475,-5.511040464e-5,-0.010086852790,-5.511040464e-5,-0.010086852790,4.9382354714e-5,0.0104204193391
0.500000000000000,4.9626195799e-5,0.0104701873502,-5.522671725e-5,-0.010130209739,-5.522671725e-5,-0.010130209739,4.9632657301e-5,0.0104651495396
0.502000000000000,4.9877609127e-5,0.0105149708483,-5.534311038e-5,-0.010173602957,-5.534311038e-5,-0.010173602957,4.9883475220e-5,0.0105099148582
0.504000000000000,5.0129515917e-5,0.0105597895802,-5.545961142e-5,-0.010217032580,-5.545961142e-5,-0.010217032580,5.0134785298e-5,0.0105547154330
0.506000000000000,5.0381893164e-5,0.0106046436850,-5.557624743e-5,-0.010260498745,-5.557624743e-5,-0.010260498745,5.0386564709e-5,0.0105995514029
0.508000000000000,5.0634718207e-5,0.0106495333023,-5.569304511e-5,-0.010304001588,-5.569304511e-5,-0.010304001588,5.0638790965e-5,0.0106444229075
0.510000000000000,5.0887968731e-5,0.0106944585727,-5.581003080e-5,-0.010347541244,-5.581003080e-5,-0.010347541244,5.0891441926e-5,0.0106893300870
0.512000000000000,5.1141622768e-5,0.0107394196372,-5.592723051e-5,-0.010391117851,-5.592723051e-5,-0.010391117851,5.1144495793e-5,0.0107342730824
0.514000000000000,5.1395658697e-5,0.0107844166377,-5.604466990e-5,-0.010434731543,-5.604466990e-5,-0.010434731543,5.1397931113e-5,0.0107792520352
0.516000000000000,5.1650055242e-5,0.0108294497167,-5.616237427e-5,-0.010478382456,-5.616237427e-5,-0.010478382456,5.1651726776e-5,0.0108242670879
0.518000000000000,5.1904791476e-5,0.0108745190172,-5.628036859e-5,-0.010522070728,-5.628036859e-5,-0.010522070728,5.1905862019e-5,0.0108693183833
0.520000000000000,5.2159846818e-5,0.0109196246832,-5.639867747e-5,-0.010565796494,-5.639867747e-5,-0.010565796494,5.2160316423e-5,0.0109144060651
